# # Once                                                         FEFF 10.0.0 
# # POT  SCF  60  4.0000   0, NO core-hole, AFOLP (folp(0)= 1.150)
# # Abs   Z=29 Rmt= 1.362 Rnm= 1.399 L3 shell
# #   RGRID 0.0100
# # Pot 1 Z=29 Rmt= 1.362 Rnm= 1.399
# # Gam_ch=5.960E-01 H-L exch Vi= 4.996E-02 Vr= 7.605E-01
# # Mu=-6.938E+00eV kf=2.039E+00 Vint=-1.646E+01eV Rs_int= 1.778
# FMS rfms= 8.0000
# # PATH  Rmax=-1.000,  Keep_limit= 0.00, Heap_limit 0.00  Pwcrit= 2.50%
#  S02=1.000  Temp=   0.00  Debye_temp=   0.00  Global_sig2= 0.00000
#  Energy zero shift, vr, vi    0.00000E+00   0.00000E+00
#  Curved wave amplitude ratio filter   4.000%
#     file         sig2 tot  cw amp ratio   deg  nlegs   reff  inp sig2
#     0/   0 paths used
#  xsedge+ 50, used to normalize mu           1.0000E+00
#  -----------------------------------------------------------------------
#  omega    e    k    mu    mu0     chi     @#
       882.6842657738      -60.3208693000       -3.7164075256    1.2207772904E-05    1.2006383918E-05    2.0138898572E-07
       892.6842657738      -50.3208693000       -3.3446976520    1.6732906253E-05    1.6404191249E-05    3.2871500425E-07
       902.6842657738      -40.3208693000       -2.9261441985    2.5023314345E-05    2.4407435699E-05    6.1587864629E-07
       912.6842657738      -30.3208693000       -2.4367266838    4.4194206706E-05    4.2731800008E-05    1.4624066982E-06
       914.1842657738      -28.8208693000       -2.3545560817    4.9360695869E-05    4.7641129386E-05    1.7195664825E-06
       915.6842657738      -27.3208693000       -2.2694122041    5.5285274579E-05    5.3240401330E-05    2.0448732487E-06
       917.1842657738      -25.8208693000       -2.1809468499    6.3668813421E-05    6.1202299213E-05    2.4665142083E-06
       918.6842657738      -24.3208693000       -2.0887381353    7.3932846737E-05    7.0912546528E-05    3.0203002095E-06
       920.1842657738      -22.8208693000       -1.9922661490    8.7522800095E-05    8.3757292933E-05    3.7655071625E-06
       921.6842657738      -21.3208693000       -1.8908784712    1.0629917233E-04    1.0150419073E-04    4.7949816027E-06
       922.6842657738      -20.3208693000       -1.8201520141    1.2328031737E-04    1.1756911956E-04    5.7111978041E-06
       922.8009207738      -20.2042143000       -1.8117216204    1.2557767689E-04    1.1974411781E-04    5.8335590878E-06
       922.9175757738      -20.0875593000       -1.8032518142    1.2795243084E-04    1.2199283055E-04    5.9596002913E-06
       923.0342307738      -19.9709043000       -1.7947420374    1.3040842520E-04    1.2431895955E-04    6.0894656452E-06
       923.1508857738      -19.8542493000       -1.7861915996    1.3294953510E-04    1.2672622437E-04    6.2233107306E-06
       923.1842657738      -19.8208693000       -1.7837374327    1.3369289363E-04    1.2743052989E-04    6.2623637440E-06
       923.2675407738      -19.7375943000       -1.7776000938    1.3557998427E-04    1.2921868840E-04    6.3612958720E-06
       923.3841957738      -19.6209393000       -1.7689669815    1.3830459215E-04    1.3180099845E-04    6.5035937066E-06
       923.5008507738      -19.5042843000       -1.7602914089    1.4112830349E-04    1.3447791845E-04    6.6503850445E-06
       923.6175057738      -19.3876293000       -1.7515728666    1.4405642875E-04    1.3725456523E-04    6.8018635184E-06
       923.7341607738      -19.2709743000       -1.7428107707    1.4709455841E-04    1.4013631860E-04    6.9582398121E-06
       923.8508157738      -19.1543193000       -1.7340043997    1.5024867432E-04    1.4312894154E-04    7.1197327759E-06
       923.9674707738      -19.0376643000       -1.7251530137    1.5352534625E-04    1.4623876729E-04    7.2865789612E-06
       924.0841257738      -18.9210093000       -1.7162559784    1.5693143590E-04    1.4947238719E-04    7.4590487127E-06
       924.2007807738      -18.8043543000       -1.7073126424    1.6047453971E-04    1.5283713153E-04    7.6374081747E-06
       924.3174357738      -18.6876993000       -1.6983222116    1.6416262533E-04    1.5634064135E-04    7.8219839836E-06
       924.4340907738      -18.5710443000       -1.6892838081    1.6800428016E-04    1.5999117565E-04    8.0131045062E-06
       924.5507457738      -18.4543893000       -1.6801969743    1.7200917981E-04    1.6379799559E-04    8.2111842225E-06
       924.6674007738      -18.3377343000       -1.6710606019    1.7618742073E-04    1.6777076577E-04    8.4166549594E-06
       924.7840557738      -18.2210793000       -1.6618740658    1.8054996782E-04    1.7191991658E-04    8.6300512419E-06
       924.9007107738      -18.1044243000       -1.6526364008    1.8510909447E-04    1.7625706550E-04    8.8520289629E-06
       925.0173657738      -17.9877693000       -1.6433468094    1.8987785202E-04    1.8079446752E-04    9.0833844995E-06
       925.1340207738      -17.8711143000       -1.6340044059    1.9487095135E-04    1.8554574843E-04    9.3252029258E-06
       925.2506757738      -17.7544593000       -1.6246082793    2.0010452316E-04    1.9052561861E-04    9.5789045495E-06
       925.3673307738      -17.6378043000       -1.6151576238    2.0559653491E-04    1.9575006708E-04    9.8464678255E-06
       925.4839857738      -17.5211493000       -1.6056512113    2.1136689566E-04    2.0123666901E-04    1.0130226656E-05
       925.6006407738      -17.4044943000       -1.5960881790    2.1743570366E-04    2.0700469377E-04    1.0431009894E-05
       925.7172957738      -17.2878393000       -1.5864675700    2.2381878063E-04    2.1307525346E-04    1.0743527163E-05
       925.8339507738      -17.1711843000       -1.5767882629    2.3052821565E-04    2.1947148123E-04    1.1056734418E-05
       925.9506057738      -17.0545293000       -1.5670490343    2.3759033691E-04    2.2621925848E-04    1.1371078434E-05
       926.0672607738      -16.9378743000       -1.5572489648    2.4504889212E-04    2.3334688984E-04    1.1702002281E-05
       926.1839157738      -16.8212193000       -1.5473869674    2.5294824544E-04    2.4088617961E-04    1.2062065832E-05
       926.3005707738      -16.7045643000       -1.5374615733    2.6133166742E-04    2.4887260103E-04    1.2459066382E-05
       926.4172257738      -16.5879093000       -1.5274717559    2.7023952146E-04    2.5734548102E-04    1.2894040442E-05
       926.5338807738      -16.4712543000       -1.5174161024    2.7971656012E-04    2.6634906382E-04    1.3367496294E-05
       926.6505357738      -16.3545993000       -1.5072933657    2.8979235356E-04    2.7592925360E-04    1.3863099959E-05
       926.7671907738      -16.2379443000       -1.4971022563    3.0050366470E-04    2.8613717792E-04    1.4366486775E-05
       926.8838457738      -16.1212893000       -1.4868412966    3.1191960911E-04    2.9702983126E-04    1.4889777843E-05
       927.0005007738      -16.0046343000       -1.4765089583    3.2412869959E-04    3.0867316407E-04    1.5455535521E-05
       927.1171557738      -15.8879793000       -1.4661038049    3.3722902430E-04    3.2114280617E-04    1.6086218133E-05
       927.2338107738      -15.7713243000       -1.4556243479    3.5132760079E-04    3.3452528234E-04    1.6802318452E-05
       927.3504657738      -15.6546693000       -1.4450688236    3.6654395896E-04    3.4891847341E-04    1.7625485552E-05
       927.4671207738      -15.5380143000       -1.4344357010    3.8301661607E-04    3.6443497815E-04    1.8581637921E-05
       927.5837757738      -15.4213593000       -1.4237230921    4.0090431771E-04    3.8120223920E-04    1.9702078515E-05
       927.7004307738      -15.3047043000       -1.4129292642    4.2039643544E-04    3.9936913356E-04    2.1027301875E-05
       927.8170857738      -15.1880493000       -1.4020524174    4.4171406188E-04    4.1910633936E-04    2.2607722518E-05
       927.9337407738      -15.0713943000       -1.3910905279    4.6511961768E-04    4.4061210476E-04    2.4507512922E-05
       928.0503957738      -14.9547393000       -1.3800414148    4.9092717092E-04    4.6411792149E-04    2.6809249430E-05
       928.1670507738      -14.8380843000       -1.3689032771    5.1951536601E-04    4.8989545880E-04    2.9619907204E-05
       928.2837057738      -14.7214293000       -1.3576737670    5.5134572552E-04    5.1826462839E-04    3.3081097128E-05
       928.4003607738      -14.6047743000       -1.3463505191    5.8699398188E-04    5.4960464439E-04    3.7389337487E-05
       928.5170157738      -14.4881193000       -1.3349313473    6.2719223697E-04    5.8437072493E-04    4.2821512032E-05
       928.6336707738      -14.3714643000       -1.3234134873    6.7287773429E-04    6.2309913606E-04    4.9778598233E-05
       928.7503257738      -14.2548093000       -1.3117945828    7.2530414863E-04    6.6645417134E-04    5.8849977282E-05
       928.8669807738      -14.1381543000       -1.3000718428    7.8613156946E-04    7.1522367409E-04    7.0907895370E-05
       928.9836357738      -14.0214993000       -1.2882423915    8.5763141807E-04    7.7039894571E-04    8.7232472363E-05
       929.1002907738      -13.9048443000       -1.2763033866    9.4287943548E-04    8.3319408103E-04    1.0968535444E-04
       929.2169457738      -13.7881893000       -1.2642516404    1.0458593239E-03    9.0507726958E-04    1.4078205434E-04
       929.3336007738      -13.6715343000       -1.2520838547    1.1713277452E-03    9.8797954663E-04    1.8334819857E-04
       929.4502557738      -13.5548793000       -1.2397965702    1.3231328147E-03    1.0842870718E-03    2.3884574288E-04
       929.5669107738      -13.4382243000       -1.2273864147    1.5005686375E-03    1.1970740294E-03    3.0349460811E-04
       929.6835657738      -13.3215693000       -1.2148494037    1.6972729219E-03    1.3303712722E-03    3.6690164971E-04
       929.8002207738      -13.2049143000       -1.2021817455    1.9146794658E-03    1.4893154113E-03    4.2536405453E-04
       929.9168757738      -13.0882593000       -1.1893791314    2.1768840647E-03    1.6809328935E-03    4.9595117115E-04
       930.0335307738      -12.9716043000       -1.1764372008    2.5092020142E-03    1.9144831611E-03    5.9471885308E-04
       930.1501857738      -12.8549493000       -1.1633513497    2.9039508100E-03    2.2026516296E-03    7.0129918041E-04
       930.2668407738      -12.7382943000       -1.1501165732    3.3147917116E-03    2.5629941581E-03    7.5179755351E-04
       930.3834957738      -12.6216393000       -1.1367276695    3.7132419014E-03    3.0198566976E-03    6.9338520372E-04
       930.5001507738      -12.5049843000       -1.1231792215    4.1412963319E-03    3.6077394032E-03    5.3355692876E-04
       930.6168057738      -12.3883293000       -1.1094652885    4.6471655656E-03    4.3756662129E-03    2.7149935269E-04
       930.7334607738      -12.2716743000       -1.0955798017    5.2426954691E-03    5.3926802961E-03   -1.4998482709E-04
       930.8501157738      -12.1550193000       -1.0815160059    5.9466170798E-03    6.7539991248E-03   -8.0738204505E-04
       930.9667707738      -12.0383643000       -1.0672668022    6.7851315798E-03    8.5819196752E-03   -1.7967880954E-03
       931.0834257738      -11.9217093000       -1.0528249155    7.8301029636E-03    1.1007678196E-02   -3.1775752320E-03
       931.2000807738      -11.8050543000       -1.0381820483    9.1887575452E-03    1.4107920174E-02   -4.9191626288E-03
       931.3167357738      -11.6883993000       -1.0233298331    1.0790655860E-02    1.7775684712E-02   -6.9850288518E-03
       931.4333907738      -11.5717443000       -1.0082587547    1.2188325464E-02    2.1547739516E-02   -9.3594140516E-03
       931.5500457738      -11.4550893000       -0.9929588474    1.2832953818E-02    2.4502282018E-02   -1.1669328200E-02
       931.6667007738      -11.3384343000       -0.9774196377    1.2826964338E-02    2.5578516284E-02   -1.2751551946E-02
       931.7833557738      -11.2217793000       -0.9616292481    1.3177691883E-02    2.4446577821E-02   -1.1268885939E-02
       931.9000107738      -11.1051243000       -0.9455753203    1.4651670509E-02    2.1841615274E-02   -7.1899447653E-03
       932.0166657738      -10.9884693000       -0.9292440236    1.6837132092E-02    1.8807160737E-02   -1.9700286451E-03
       932.1333207738      -10.8718143000       -0.9126205260    1.9063469976E-02    1.6010263854E-02    3.0532061220E-03
       932.2499757738      -10.7551593000       -0.8956884989    2.1154542494E-02    1.3688519510E-02    7.4660229838E-03
       932.3666307738      -10.6385043000       -0.8784302530    2.3169070311E-02    1.1847320762E-02    1.1321749549E-02
       932.4832857738      -10.5218493000       -0.8608260752    2.5220981289E-02    1.0414545491E-02    1.4806435798E-02
       932.5999407738      -10.4051943000       -0.8428542583    2.6956095284E-02    9.3039034943E-03    1.7652191789E-02
       932.7165957738      -10.2885393000       -0.8244907298    2.7189566931E-02    8.4420011047E-03    1.8747565826E-02
       932.8332507738      -10.1718843000       -0.8057088386    2.5025235998E-02    7.7702854964E-03    1.7254950501E-02
       932.9499057738      -10.0552293000       -0.7864785787    2.1150089292E-02    7.2460174627E-03    1.3904071829E-02
       933.0665607338       -9.9385743400       -0.7667661468    1.7179133992E-02    6.8362935174E-03    1.0342840474E-02
       933.1832157338       -9.8219193400       -0.7465333481    1.4040507980E-02    6.5168336224E-03    7.5236743574E-03
       933.2998707338       -9.7052643400       -0.7257367352    1.1788012076E-02    6.2692562672E-03    5.5187558087E-03
       933.4165257338       -9.5886093400       -0.7043263292    1.0197325286E-02    6.0799314145E-03    4.1173938714E-03
       933.5331807338       -9.4719543400       -0.6822443456    9.0578642940E-03    5.9372359657E-03    3.1206283283E-03
       933.6498357338       -9.3552993400       -0.6594233209    8.2261837895E-03    5.8339075421E-03    2.3922762475E-03
       933.7664907338       -9.2386443400       -0.6357836361    7.6089304659E-03    5.7631742864E-03    1.8457561795E-03
       933.8831457338       -9.1219893400       -0.6112303993    7.1453454550E-03    5.7192176861E-03    1.4261277689E-03
       933.9998007338       -9.0053343400       -0.5856486974    6.7960435939E-03    5.6981849960E-03    1.0978585979E-03
       934.1164557338       -8.8886793400       -0.5588972529    6.5332058705E-03    5.6962225626E-03    8.3698330781E-04
       934.2331107338       -8.7720243400       -0.5307993108    6.3376225399E-03    5.7106579677E-03    6.2696457215E-04
       934.3497657338       -8.6553693400       -0.5011284041    6.1949959650E-03    5.7389447543E-03    4.5605121064E-04
       934.4664207338       -8.5387143400       -0.4695864350    6.0945287567E-03    5.7787987401E-03    3.1573001661E-04
       934.5830757338       -8.4220593400       -0.4357673412    6.0275734234E-03    5.8278263974E-03    1.9974702602E-04
       934.6997307338       -8.3054043400       -0.3990926352    5.9886722485E-03    5.8852495393E-03    1.0342270918E-04
       934.8163857338       -8.1887493400       -0.3586874692    5.9717403309E-03    5.9485906801E-03    2.3149650850E-05
       934.9330407338       -8.0720943400       -0.3131109648    5.9730826395E-03    6.0170988835E-03   -4.4016243912E-05
       935.0496957338       -7.9554393400       -0.2596540751    5.9885766115E-03    6.0892237144E-03   -1.0064710290E-04
       935.1663507338       -7.8387843400       -0.1918384507    6.0147516035E-03    6.1639179357E-03   -1.4916633217E-04
       935.3065657338       -7.6985693400        0.0000000000    6.0555495428E-03    6.2556989870E-03   -2.0014944425E-04
       935.3996607338       -7.6054743400        0.1563153404    6.0853230272E-03    6.3168657885E-03   -2.3154276127E-04
       935.5163157338       -7.4888193400        0.2346331638    6.1226853275E-03    6.3930362806E-03   -2.7035095311E-04
       935.6329707338       -7.3721643400        0.2926960239    6.1573325768E-03    6.4682434786E-03   -3.1091090174E-04
       935.7496257338       -7.2555093400        0.3410120232    6.1864102788E-03    6.5418853581E-03   -3.5547507928E-04
       935.8662807338       -7.1388543400        0.3832850691    6.2065695706E-03    6.6127094503E-03   -4.0613987973E-04
       935.9829357338       -7.0221993400        0.4213379741    6.2163975952E-03    6.6808076013E-03   -4.6441000604E-04
       936.0995907338       -6.9055443400        0.4562279248    6.2166624233E-03    6.7472506914E-03   -5.3058826812E-04
       936.2162457338       -6.7888893400        0.4886329674    6.2119559340E-03    6.8153298065E-03   -6.0337387246E-04
       936.3329007338       -6.6722343400        0.5190186713    6.1946967845E-03    6.8790952722E-03   -6.8439848763E-04
       936.4495557338       -6.5555793400        0.5477212905    6.1663592873E-03    6.9392181370E-03   -7.7285884976E-04
       936.5662107338       -6.4389243400        0.5749929532    6.1272176277E-03    6.9948357596E-03   -8.6761813194E-04
       936.6828657338       -6.3222693400        0.6010283692    6.0786690029E-03    7.0457425894E-03   -9.6707358645E-04
       936.7995207338       -6.2056143400        0.6259818939    6.0222316347E-03    7.0915895106E-03   -1.0693578759E-03
       936.9161757338       -6.0889593400        0.6499781245    5.9610882814E-03    7.1335212255E-03   -1.1724329442E-03
       937.0328307338       -5.9723043400        0.6731194495    5.8968221566E-03    7.1710106632E-03   -1.2741885067E-03
       937.1494857338       -5.8556493400        0.6954912490    5.8310793127E-03    7.2035736803E-03   -1.3724943675E-03
       937.2661407338       -5.7389943400        0.7171655050    5.7669608625E-03    7.2322032291E-03   -1.4652423666E-03
       937.3827957338       -5.6223393400        0.7382036253    5.7057270160E-03    7.2562076908E-03   -1.5504806748E-03
       937.4994507338       -5.5056843400        0.7586585684    5.6501820549E-03    7.2764820622E-03   -1.6263000073E-03
       937.6161057338       -5.3890293400        0.7785762996    5.6021408306E-03    7.2931198341E-03   -1.6909790035E-03
       937.7327607338       -5.2723743400        0.7979970125    5.5632446455E-03    7.3060882434E-03   -1.7428435978E-03
       937.8494157338       -5.1557193400        0.8169562510    5.5358186602E-03    7.3161965394E-03   -1.7803778792E-03
       937.9660707338       -5.0390643400        0.8354853362    5.5204368190E-03    7.3224915895E-03   -1.8020547705E-03
       938.0827257338       -4.9224093400        0.8536123113    5.5192831359E-03    7.3256376262E-03   -1.8063544903E-03
       938.1993807338       -4.8057543400        0.8713622413    5.5355795984E-03    7.3273230837E-03   -1.7917434853E-03
       938.3160357338       -4.6890993400        0.8887578371    5.5687894817E-03    7.3254246276E-03   -1.7566351459E-03
       938.4326907338       -4.5724443400        0.9058193660    5.6224791068E-03    7.3217598309E-03   -1.6992807241E-03
       938.5493457338       -4.4557893400        0.9225654203    5.6981802331E-03    7.3161304759E-03   -1.6179502427E-03
       938.6660007338       -4.3391343400        0.9390128784    5.7976693031E-03    7.3085896043E-03   -1.5109203012E-03
       938.7826557338       -4.2224793400        0.9551771372    5.9228629383E-03    7.2994914441E-03   -1.3766285058E-03
       938.8993107338       -4.1058243400        0.9710723940    6.0748302048E-03    7.2888545657E-03   -1.2140243609E-03
       939.0159657338       -3.9891693400        0.9867116221    6.2541785999E-03    7.2771141170E-03   -1.0229355170E-03
       939.1326207338       -3.8725143400        1.0021068619    6.4594492293E-03    7.2641571023E-03   -8.0470787295E-04
       939.2492757338       -3.7558593400        1.0172690861    6.6874463016E-03    7.2502664334E-03   -5.6282013185E-04
       939.3659307338       -3.6392043400        1.0322086148    6.9320446023E-03    7.2356381995E-03   -3.0359359718E-04
       939.4825857338       -3.5225493400        1.0469349306    7.1837355603E-03    7.2202177966E-03   -3.6482236325E-05
