# # Once                                                         FEFF 10.0.0 
# # POT  SCF  60  4.0000   0, NO core-hole, AFOLP (folp(0)= 1.150)
# # Abs   Z=29 Rmt= 1.362 Rnm= 1.399 L3 shell
# #   RGRID 0.0100
# # Pot 1 Z=29 Rmt= 1.362 Rnm= 1.399
# # Gam_ch=5.960E-01 H-L exch Vi= 4.996E-02 Vr=-4.348E-01
# # Mu=-6.938E+00eV kf=2.039E+00 Vint=-1.646E+01eV Rs_int= 1.778
# FMS rfms= 8.0000
# # PATH  Rmax=-1.000,  Keep_limit= 0.00, Heap_limit 0.00  Pwcrit= 2.50%
#  S02=1.000  Temp=   0.00  Debye_temp=   0.00  Global_sig2= 0.00000
#  Energy zero shift, vr, vi    0.00000E+00   0.00000E+00
#  Curved wave amplitude ratio filter   4.000%
#     file         sig2 tot  cw amp ratio   deg  nlegs   reff  inp sig2
#     0/   0 paths used
#  xsedge+ 50, used to normalize mu           1.0000E+00
#  -----------------------------------------------------------------------
#  omega    e    k    mu    mu0     chi     @#
       882.6840896493      -60.3209393000       -3.7583790985    1.0386922274E-05    1.0388714895E-05   -1.7926213385E-09
       892.6840896493      -50.3209393000       -3.3912727603    1.3896556794E-05    1.3882280591E-05    1.4276203134E-08
       902.6840896493      -40.3209393000       -2.9792696371    2.0001847075E-05    1.9935307176E-05    6.6539898449E-08
       912.6840896493      -30.3209393000       -2.5002729966    3.2952834017E-05    3.2678007679E-05    2.7482633779E-07
       914.1840896493      -28.8209393000       -2.4202607385    3.6230691241E-05    3.5884324213E-05    3.4636702821E-07
       915.6840896493      -27.3209393000       -2.3375114712    3.9743033517E-05    3.9303292140E-05    4.3974137671E-07
       917.1840896493      -25.8209393000       -2.2517232765    4.4975525167E-05    4.4408777917E-05    5.6674724983E-07
       918.6840896493      -24.3209393000       -2.1625344215    5.1010732599E-05    5.0271608434E-05    7.3912416500E-07
       920.1840896493      -22.8209393000       -2.0695054868    5.8732642856E-05    5.7752789862E-05    9.7985299330E-07
       921.6840896493      -21.3209393000       -1.9720927830    6.9014590715E-05    6.7689136810E-05    1.3254539052E-06
       922.6840896493      -20.3209393000       -1.9043849713    7.8009939486E-05    7.6366431825E-05    1.6435076616E-06
       922.8007446493      -20.2042843000       -1.8963289155    7.9208325346E-05    7.7521667861E-05    1.6866574845E-06
       922.9173996493      -20.0876293000       -1.8882387149    8.0442869187E-05    7.8711604143E-05    1.7312650438E-06
       923.0340546493      -19.9709743000       -1.8801135888    8.1715196092E-05    7.9937802399E-05    1.7773936927E-06
       923.1507096493      -19.8543193000       -1.8719531964    8.3026910213E-05    8.1201796812E-05    1.8251134003E-06
       923.1840896493      -19.8209393000       -1.8696116088    8.3409756179E-05    8.1570685680E-05    1.8390704991E-06
       923.2673646493      -19.7376643000       -1.8637570744    8.4379944680E-05    8.2505448732E-05    1.8744959488E-06
       923.3840196493      -19.6210093000       -1.8555248066    8.5776386993E-05    8.3850768040E-05    1.9256189527E-06
       923.5006746493      -19.5043543000       -1.8472558521    8.7218420496E-05    8.5239852140E-05    1.9785683565E-06
       923.6173296493      -19.3876993000       -1.8389497162    8.8708449687E-05    8.6675019571E-05    2.0334301152E-06
       923.7339846493      -19.2710443000       -1.8306058345    9.0248862017E-05    8.8158557302E-05    2.0903047150E-06
       923.8506396493      -19.1543893000       -1.8222237470    9.1842206309E-05    8.9692911909E-05    2.1492944004E-06
       923.9672946493      -19.0377343000       -1.8138029239    9.3491390800E-05    9.1280876509E-05    2.2105142907E-06
       924.0839496493      -18.9210793000       -1.8053429411    9.5199341597E-05    9.2925250476E-05    2.2740911207E-06
       924.2006046493      -18.8044243000       -1.7968430679    9.6969339048E-05    9.4629172527E-05    2.3401665207E-06
       924.3172596493      -18.6877693000       -1.7883027354    9.8804858894E-05    9.6395967393E-05    2.4088915008E-06
       924.4339146493      -18.5711143000       -1.7797214209    1.0070963991E-04    9.8229190574E-05    2.4804493338E-06
       924.5505696493      -18.4544593000       -1.7710985288    1.0268779548E-04    1.0013274895E-04    2.5550465275E-06
       924.6672246493      -18.3378043000       -1.7624335091    1.0474356576E-04    1.0211064274E-04    2.6329230159E-06
       924.7838796493      -18.2211493000       -1.7537256162    1.0688198365E-04    1.0416760794E-04    2.7143757103E-06
       924.9005346493      -18.1044943000       -1.7449743300    1.0910805275E-04    1.0630825791E-04    2.7997948379E-06
       925.0171896493      -17.9878393000       -1.7361788718    1.1142775186E-04    1.0853809433E-04    2.8896575326E-06
       925.1338446493      -17.8711843000       -1.7273386901    1.1384730684E-04    1.1086266939E-04    2.9846374544E-06
       925.2504996493      -17.7545293000       -1.7184529089    1.1637401441E-04    1.1328826661E-04    3.0857478012E-06
       925.3671546493      -17.6378743000       -1.7095210662    1.1901589579E-04    1.1582162494E-04    3.1942708462E-06
       925.4838096493      -17.5212193000       -1.7005422484    1.2178201938E-04    1.1847015677E-04    3.3118626096E-06
       925.6004646493      -17.4045643000       -1.6915158332    1.2468093596E-04    1.2124198993E-04    3.4389460303E-06
       925.7171196493      -17.2879093000       -1.6824410546    1.2771694165E-04    1.2414591262E-04    3.5710290267E-06
       925.8337746493      -17.1712543000       -1.6733169350    1.3089075638E-04    1.2719180608E-04    3.6989502928E-06
       925.9504296493      -17.0545993000       -1.6641427906    1.3421285110E-04    1.3039048599E-04    3.8223651020E-06
       926.0670846493      -16.9379443000       -1.6549178539    1.3770670026E-04    1.3375388305E-04    3.9528172146E-06
       926.1837396493      -16.8212893000       -1.6456411413    1.4139499170E-04    1.3729542884E-04    4.0995628623E-06
       926.3003946493      -16.7046343000       -1.6363119022    1.4529714999E-04    1.4103011736E-04    4.2670326305E-06
       926.4170496493      -16.5879793000       -1.6269290369    1.4943065804E-04    1.4497467800E-04    4.4559800380E-06
       926.5337046493      -16.4713243000       -1.6174919411    1.5381338015E-04    1.4914764343E-04    4.6657367190E-06
       926.6503596493      -16.3546693000       -1.6079992628    1.5845207959E-04    1.5356774317E-04    4.8843364202E-06
       926.7670146493      -16.2380143000       -1.5984504114    1.6335599391E-04    1.5825544579E-04    5.1005481140E-06
       926.8836696493      -16.1213593000       -1.5888439720    1.6855418775E-04    1.6323342127E-04    5.3207664818E-06
       927.0003246493      -16.0047043000       -1.5791791634    1.7408745642E-04    1.6852865528E-04    5.5588011374E-06
       927.1169796493      -15.8880493000       -1.5694549750    1.7999973994E-04    1.7417221580E-04    5.8275241418E-06
       927.2336346493      -15.7713943000       -1.5596700232    1.8633754670E-04    1.8019970476E-04    6.1378419389E-06
       927.3502896493      -15.6547393000       -1.5498232944    1.9315116283E-04    1.8665135618E-04    6.4998066504E-06
       927.4669446493      -15.5380843000       -1.5399136727    2.0049924754E-04    1.9357369334E-04    6.9255541946E-06
       927.5835996493      -15.4214293000       -1.5299398664    2.0844801340E-04    2.0101886322E-04    7.4291501731E-06
       927.7002546493      -15.3047743000       -1.5199005420    2.1707621307E-04    2.0904795662E-04    8.0282564565E-06
       927.8169096493      -15.1881193000       -1.5097944629    2.2647577733E-04    2.1773059664E-04    8.7451806843E-06
       927.9335646493      -15.0714643000       -1.4996203505    2.3675557677E-04    2.2714789026E-04    9.6076865106E-06
       928.0502196493      -14.9548093000       -1.4893766677    2.4804569308E-04    2.3739457165E-04    1.0651121428E-05
       928.1668746493      -14.8381543000       -1.4790620409    2.6050188520E-04    2.4858094573E-04    1.1920939468E-05
       928.2835296493      -14.7214993000       -1.4686750480    2.7431545151E-04    2.6083764802E-04    1.3477803488E-05
       928.4001846493      -14.6048443000       -1.4582140693    2.8972373721E-04    2.7431868335E-04    1.5405053861E-05
       928.5168396493      -14.4881893000       -1.4476773542    3.0702837364E-04    2.8920767464E-04    1.7820698994E-05
       928.6334946493      -14.3715343000       -1.4370635328    3.2662323412E-04    3.0572702343E-04    2.0896210687E-05
       928.7501496493      -14.2548793000       -1.4263707347    3.4902211940E-04    3.2413798559E-04    2.4884133809E-05
       928.8668046493      -14.1382243000       -1.4155971702    3.7492648065E-04    3.4476786702E-04    3.0158613623E-05
       928.9834596493      -14.0215693000       -1.4047409053    4.0528092608E-04    3.6801308592E-04    3.7267840158E-05
       929.1001146493      -13.9049143000       -1.3938000838    4.4136439713E-04    3.9435909190E-04    4.7005305237E-05
       929.2167696493      -13.7882593000       -1.3827727757    4.8486999779E-04    4.2441979410E-04    6.0450203691E-05
       929.3334246493      -13.6716043000       -1.3716568174    5.3775554536E-04    4.5895466775E-04    7.8800877608E-05
       929.4500796493      -13.5549493000       -1.3604498794    6.0159515190E-04    4.9893343446E-04    1.0266171744E-04
       929.5667346493      -13.4382943000       -1.3491500102    6.7595256647E-04    5.4559714796E-04    1.3035541851E-04
       929.6833896493      -13.3216393000       -1.3377546956    7.5790058869E-04    6.0055505989E-04    1.5734552880E-04
       929.8000446493      -13.2049843000       -1.3262613951    8.4783434385E-04    6.6591494996E-04    1.8191939389E-04
       929.9166996493      -13.0883293000       -1.3146677008    9.5578189508E-04    7.4446731927E-04    2.1131457581E-04
       930.0333546493      -12.9716743000       -1.3029707696    1.0924682920E-03    8.3996886082E-04    2.5249943123E-04
       930.1500096493      -12.8550193000       -1.2911679191    1.2547322489E-03    9.5754362695E-04    2.9718862197E-04
       930.2666646493      -12.7383643000       -1.2792561763    1.4231434695E-03    1.1042020582E-03    3.1894141122E-04
       930.3833196493      -12.6217093000       -1.2672324282    1.5856006812E-03    1.2897954148E-03    2.9580526633E-04
       930.4999746493      -12.5050543000       -1.2550936256    1.7593684282E-03    1.5282271332E-03    2.3114129499E-04
       930.6166296493      -12.3883993000       -1.2428361832    1.9643657242E-03    1.8391696863E-03    1.2519603786E-04
       930.7332846493      -12.2717443000       -1.2304565120    2.2055308489E-03    2.2504564481E-03   -4.4925599168E-05
       930.8499396493      -12.1550893000       -1.2179511909    2.4905746308E-03    2.8005541149E-03   -3.0997948404E-04
       930.9665946493      -12.0384343000       -1.2053160882    2.8299819761E-03    3.5386097359E-03   -7.0862775975E-04
       931.0832496493      -11.9217793000       -1.1925471681    3.2529473747E-03    4.5177498882E-03   -1.2648025135E-03
       931.1999046493      -11.8051243000       -1.1796399045    3.8028374184E-03    5.7688914600E-03   -1.9660540416E-03
       931.3165596493      -11.6884693000       -1.1665899793    4.4519165156E-03    7.2494403858E-03   -2.7975238702E-03
       931.4332146493      -11.5718143000       -1.1533923655    5.0209139780E-03    8.7737932107E-03   -3.7528792327E-03
       931.5498696493      -11.4551593000       -1.1400420275    5.2885440451E-03    9.9711396377E-03   -4.6825955926E-03
       931.6665246493      -11.3385043000       -1.1265334409    5.2957098106E-03    1.0414131855E-02   -5.1184220448E-03
       931.7831796493      -11.2218493000       -1.1128607953    5.4482541852E-03    9.9686133591E-03   -4.5203591738E-03
       931.8998346493      -11.1051943000       -1.0990182581    6.0562608562E-03    8.9295737672E-03   -2.8733129111E-03
       932.0164896493      -10.9885393000       -1.0849989345    6.9554327939E-03    7.7168086696E-03   -7.6137587571E-04
       932.1331446493      -10.8718843000       -1.0707961790    7.8758901651E-03    6.5991261812E-03    1.2767639840E-03
       932.2497996493      -10.7552293000       -1.0564024925    8.7471041557E-03    5.6728268974E-03    3.0742772583E-03
       932.3664546493      -10.6385743000       -1.0418099612    9.5939197151E-03    4.9409366065E-03    4.6529831086E-03
       932.4831096493      -10.5219193000       -1.0270101091    1.0460549577E-02    4.3735709658E-03    6.0869786109E-03
       932.5997646493      -10.4052643000       -1.0119938406    1.1200533016E-02    3.9367212751E-03    7.2638117406E-03
       932.7164196493      -10.2886093000       -0.9967514278    1.1324126446E-02    3.6014284315E-03    7.7226980144E-03
       932.8330746493      -10.1719543000       -0.9812721699    1.0458428310E-02    3.3439404725E-03    7.1144878370E-03
       932.9497296493      -10.0552993000       -0.9655448413    8.8829231229E-03    3.1470330881E-03    5.7358900348E-03
       933.0663846093       -9.9386443400       -0.9495571158    7.2651415150E-03    2.9977837714E-03    4.2673577436E-03
       933.1830396093       -9.8219893400       -0.9332954687    5.9897113472E-03    2.8865236689E-03    3.1031876783E-03
       933.2996946093       -9.7053343400       -0.9167453816    5.0803877884E-03    2.8060826424E-03    2.2743051460E-03
       933.4163496093       -9.5886793400       -0.8998910288    4.4447303102E-03    2.7508288690E-03    1.6939014412E-03
       933.5330046093       -9.4720243400       -0.8827149216    3.9967983511E-03    2.7168497236E-03    1.2799486274E-03
       933.6496596093       -9.3553693400       -0.8651979283    3.6772836708E-03    2.7009968232E-03    9.7628684753E-04
       933.7663146093       -9.2387143400       -0.8473188131    3.4480079472E-03    2.7008243187E-03    7.4718362854E-04
       933.8829696093       -9.1220593400       -0.8290542443    3.2840724797E-03    2.7139709432E-03    5.7010153647E-04
       933.9996246093       -9.0054043400       -0.8103781272    3.1698260682E-03    2.7395037008E-03    4.3032236739E-04
       934.1162796093       -8.8887493400       -0.7912613547    3.0938386061E-03    2.7758240581E-03    3.1801454808E-04
       934.2329346093       -8.7720943400       -0.7716710401    3.0484750298E-03    2.8220899649E-03    2.2638506493E-04
       934.3495896093       -8.6554393400       -0.7515703315    3.0280627836E-03    2.8774611426E-03    1.5060164102E-04
       934.4662446093       -8.5387843400       -0.7309170488    3.0283640214E-03    2.9411852670E-03    8.7178754470E-05
       934.5828996093       -8.4221293400       -0.7096629491    3.0459979588E-03    3.0124438642E-03    3.3554094670E-05
       934.6995546093       -8.3054743400       -0.6877523322    3.0788385074E-03    3.0910177478E-03   -1.2179240368E-05
       934.8162096093       -8.1888193400       -0.6651203596    3.1245411656E-03    3.1760394057E-03   -5.1498240096E-05
       934.9328646093       -8.0721643400       -0.6416905656    3.1817040914E-03    3.2673336150E-03   -8.5629523593E-05
       935.0495196093       -7.9555093400       -0.6173722953    3.2485320039E-03    3.3641798108E-03   -1.1564780690E-04
       935.1661746093       -7.8388543400       -0.5920560110    3.3234587756E-03    3.4661376140E-03   -1.4267883841E-04
       935.2828296093       -7.7221993400       -0.5656077403    3.4048980912E-03    3.5727473150E-03   -1.6784922377E-04
       935.3994846093       -7.6055443400       -0.5378604203    3.4909399899E-03    3.6833863167E-03   -1.9244632673E-04
       935.5161396093       -7.4888893400       -0.5086016392    3.5801328738E-03    3.7979839066E-03   -2.1785103278E-04
       935.6327946093       -7.3722343400       -0.4775535257    3.6699243084E-03    3.9154056152E-03   -2.4548130681E-04
       935.7494496093       -7.2555793400       -0.4443412565    3.7584015811E-03    4.0352298403E-03   -2.7682825918E-04
       935.8661046093       -7.1389243400       -0.4084371531    3.8437995514E-03    4.1570271900E-03   -3.1322763864E-04
       935.9827596093       -7.0222693400       -0.3690564688    3.9244162616E-03    4.2802935839E-03   -3.5587732230E-04
       936.0994146093       -6.9056143400       -0.3249375933    3.9997623133E-03    4.4050039011E-03   -4.0524158786E-04
       936.2160696093       -6.7889593400       -0.2737995411    4.0714386251E-03    4.5322695141E-03   -4.6083088899E-04
       936.3327246093       -6.6723043400       -0.2105895323    4.1353385306E-03    4.6590630376E-03   -5.2372450694E-04
       936.5016896093       -6.5033393400        0.0000000000    4.2144291453E-03    4.8415245692E-03   -6.2709542388E-04
       936.5660346093       -6.4389943400        0.1299558477    4.2405664257E-03    4.9104912634E-03   -6.6992483777E-04
       936.6826896093       -6.3223393400        0.2179604511    4.2818125656E-03    5.0334910785E-03   -7.5167851285E-04
       936.7993446093       -6.2056843400        0.2795084956    4.3161155175E-03    5.1537362076E-03   -8.3762069013E-04
       936.9159996093       -6.0890293400        0.3297624044    4.3452506525E-03    5.2715009369E-03   -9.2625028444E-04
       937.0326546093       -5.9723743400        0.3733115066    4.3701498319E-03    5.3860830223E-03   -1.0159331904E-03
       937.1493096093       -5.8557193400        0.4122859750    4.3916283683E-03    5.4964860479E-03   -1.1048576797E-03
       937.2659646093       -5.7390643400        0.4478816169    4.4118675079E-03    5.6030716049E-03   -1.1912040970E-03
       937.3826196093       -5.6224093400        0.4808494293    4.4317241942E-03    5.7048086788E-03   -1.2730844846E-03
       937.4992746093       -5.5057543400        0.5116975714    4.4535062151E-03    5.8021607872E-03   -1.3486545721E-03
       937.6159296093       -5.3890993400        0.5407889257    4.4785927650E-03    5.8946449726E-03   -1.4160522075E-03
       937.7325846093       -5.2724443400        0.5683932556    4.5085645446E-03    5.9820735311E-03   -1.4735089865E-03
       937.8492396093       -5.1557893400        0.5947176842    4.5455770305E-03    6.0648202362E-03   -1.5192432057E-03
       937.9658946093       -5.0391343400        0.6199253246    4.5902535883E-03    6.1417298164E-03   -1.5514762281E-03
       938.0825496093       -4.9224793400        0.6441472184    4.6448438188E-03    6.2132964912E-03   -1.5684526724E-03
       938.1992046093       -4.8058243400        0.6674907265    4.7123486027E-03    6.2807136535E-03   -1.5683650508E-03
       938.3158596093       -4.6891693400        0.6900449991    4.7928124512E-03    6.3421002569E-03   -1.5492878057E-03
       938.4325146093       -4.5725143400        0.7118850551    4.8897633671E-03    6.3990449629E-03   -1.5092815958E-03
       938.5491696093       -4.4558593400        0.7330747683    5.0046880460E-03    6.4510461987E-03   -1.4463581527E-03
       938.6658246093       -4.3392043400        0.7536688885    5.1399654237E-03    6.4984685233E-03   -1.3585030996E-03
       938.7824796093       -4.2225493400        0.7737151140    5.2973582254E-03    6.5413281738E-03   -1.2439699484E-03
       938.8991346093       -4.1058943400        0.7932549160    5.4785441349E-03    6.5799927322E-03   -1.1014485973E-03
       939.0157896093       -3.9892393400        0.8123247419    5.6841395598E-03    6.6146293217E-03   -9.3048976194E-04
       939.1324446093       -3.8725843400        0.8309571412    5.9133688352E-03    6.6454807622E-03   -7.3211192696E-04
       939.2490996093       -3.7559293400        0.8491808138    6.1632719678E-03    6.6727113568E-03   -5.0943938901E-04
       939.3657546093       -3.6392743400        0.8670214716    6.4281761412E-03    6.6965183985E-03   -2.6834225734E-04
       939.4824096093       -3.5226193400        0.8845024118    6.6995024420E-03    6.7173015235E-03   -1.7799081474E-05
