# # Once                                                         FEFF 10.0.0 
# # POT  SCF  60  4.0000   0, NO core-hole, AFOLP (folp(0)= 1.150)
# # Abs   Z=29 Rmt= 1.362 Rnm= 1.399 L3 shell
# #   RGRID 0.0100
# # Pot 1 Z=29 Rmt= 1.362 Rnm= 1.399
# # Gam_ch=5.960E-01 H-L exch Vi= 1.800E-04 Vr= 0.000E+00
# # Mu=-7.619E+00eV kf=2.012E+00 Vint=-1.628E+01eV Rs_int= 1.802
# FMS rfms= 8.0000
# # PATH  Rmax=-1.000,  Keep_limit= 0.00, Heap_limit 0.00  Pwcrit= 2.50%
#  S02=1.000  Temp=   0.00  Debye_temp=   0.00  Global_sig2= 0.00000
#  Energy zero shift, vr, vi    0.00000E+00   0.00000E+00
#  Curved wave amplitude ratio filter   4.000%
#     file         sig2 tot  cw amp ratio   deg  nlegs   reff  inp sig2
#     0/   0 paths used
#  xsedge+ 50, used to normalize mu           1.0000E+00
#  -----------------------------------------------------------------------
#  omega    e    k    mu    mu0     chi     @#
       884.1494530260      -59.5362826000       -3.6914322719    9.0785953600E-06    9.3584831025E-06   -2.7988774253E-07
       894.1494530260      -49.5362826000       -3.3169246077    1.2095961944E-05    1.2510950346E-05   -4.1498840169E-07
       904.1494530260      -39.5362826000       -2.8943575261    1.7253817139E-05    1.7931826180E-05   -6.7800904185E-07
       914.1494530260      -29.5362826000       -2.3984624501    2.7727810575E-05    2.9036459102E-05   -1.3086485267E-06
       915.6494530260      -28.0362826000       -2.3149342078    3.0235637193E-05    3.1713565770E-05   -1.4779285770E-06
       917.1494530260      -26.5362826000       -2.2282768671    3.3196652283E-05    3.4879916630E-05   -1.6832643469E-06
       918.6494530260      -25.0362826000       -2.1381102947    3.6825735456E-05    3.8761403256E-05   -1.9356677997E-06
       920.1494530260      -23.5362826000       -2.0439699221    4.1128281060E-05    4.3379924626E-05   -2.2516435665E-06
       921.6494530260      -22.0362826000       -1.9452789073    4.6411982514E-05    4.9066776143E-05   -2.6547936292E-06
       923.1494530260      -20.5362826000       -1.8413060788    5.3053666841E-05    5.6234671922E-05   -3.1810050811E-06
       924.1494530260      -19.5362826000       -1.7685982053    5.8513886529E-05    6.2140413427E-05   -3.6265268974E-06
       924.2495120260      -19.4362236000       -1.7611578799    5.9116533110E-05    6.2792816513E-05   -3.6762834030E-06
       924.3495710260      -19.3361646000       -1.7536861700    5.9730686163E-05    6.3457770642E-05   -3.7270844790E-06
       924.4496300260      -19.2361056000       -1.7461823070    6.0356576925E-05    6.4135532700E-05   -3.7789557746E-06
       924.5496890260      -19.1360466000       -1.7386461806    6.0994591861E-05    6.4826517360E-05   -3.8319254988E-06
       924.6494530260      -19.0362826000       -1.7310995020    6.1643175395E-05    6.5529037309E-05   -3.8858619140E-06
       924.7498070260      -18.9359286000       -1.7234749490    6.2308364218E-05    6.6249639432E-05   -3.9412752139E-06
       924.8498660260      -18.8358696000       -1.7158389687    6.2984886343E-05    6.6982598572E-05   -3.9977122292E-06
       924.9499250260      -18.7358106000       -1.7081688537    6.3675047736E-05    6.7730406595E-05   -4.0553588589E-06
       925.0499840260      -18.6357516000       -1.7004643300    6.4379152683E-05    6.8493400788E-05   -4.1142481056E-06
       925.1500430260      -18.5356926000       -1.6927246134    6.5097825572E-05    6.9272227520E-05   -4.1744019479E-06
       925.2501020260      -18.4356336000       -1.6849493453    6.5831411676E-05    7.0067256470E-05   -4.2358447944E-06
       925.3501610260      -18.3355746000       -1.6771379677    6.6580327403E-05    7.0878929129E-05   -4.2986017258E-06
       925.4502200260      -18.2355156000       -1.6692901649    6.7345263917E-05    7.1707953847E-05   -4.3626899303E-06
       925.5502790260      -18.1354566000       -1.6614051646    6.8126632022E-05    7.2554745364E-05   -4.4281133418E-06
       925.6503380260      -18.0353976000       -1.6534826278    6.8925009912E-05    7.3419885459E-05   -4.4948755468E-06
       925.7503970260      -17.9353386000       -1.6455219474    6.9741040528E-05    7.4303995857E-05   -4.5629553294E-06
       925.8504560260      -17.8352796000       -1.6375226324    7.0575464294E-05    7.5207766102E-05   -4.6323018081E-06
       925.9505150260      -17.7352206000       -1.6294839830    7.1428961504E-05    7.6131780321E-05   -4.7028188177E-06
       926.0505740260      -17.6351616000       -1.6214054799    7.2302365137E-05    7.7076711438E-05   -4.7743463010E-06
       926.1506330260      -17.5351026000       -1.6132865243    7.3196833015E-05    7.8043415639E-05   -4.8465826243E-06
       926.2506920260      -17.4350436000       -1.6051264361    7.4113411058E-05    7.9032470964E-05   -4.9190599065E-06
       926.3507510260      -17.3349846000       -1.5969247180    7.5053786831E-05    8.0044780053E-05   -4.9909932225E-06
       926.4508100260      -17.2349256000       -1.5886807253    7.6019691997E-05    8.1081211421E-05   -5.0615194232E-06
       926.5508690260      -17.1348666000       -1.5803936618    7.7011657823E-05    8.2142572238E-05   -5.1309144152E-06
       926.6509280260      -17.0348076000       -1.5720629140    7.8026330032E-05    8.3229861228E-05   -5.2035311965E-06
       926.7509870260      -16.9347486000       -1.5636877156    7.9056556728E-05    8.4344048056E-05   -5.2874913273E-06
       926.8510460260      -16.8346896000       -1.5552674854    8.0103137139E-05    8.5486353662E-05   -5.3832165233E-06
       926.9511050260      -16.7346306000       -1.5468014880    8.1175540439E-05    8.6657880694E-05   -5.4823402548E-06
       927.0511640260      -16.6345716000       -1.5382887602    8.2280639879E-05    8.7859942165E-05   -5.5793022862E-06
       927.1512230260      -16.5345126000       -1.5297287305    8.3421384885E-05    8.9094091081E-05   -5.6727061957E-06
       927.2512820260      -16.4344536000       -1.5211206004    8.4601050322E-05    9.0362116545E-05   -5.7610662230E-06
       927.3513410260      -16.3343946000       -1.5124634079    8.5818418790E-05    9.1665680802E-05   -5.8472620123E-06
       927.4514000260      -16.2343356000       -1.5037563764    8.7075679449E-05    9.3006154999E-05   -5.9304755495E-06
       927.5514590260      -16.1342766000       -1.4949986350    8.8363382620E-05    9.4384123371E-05   -6.0207407512E-06
       927.6515180260      -16.0342176000       -1.4861892158    8.9678112976E-05    9.5800076896E-05   -6.1219639207E-06
       927.7515770260      -15.9341586000       -1.4773274823    9.1021876509E-05    9.7255062046E-05   -6.2331855368E-06
       927.8516360260      -15.8340996000       -1.4684120527    9.2400548183E-05    9.8750594955E-05   -6.3500467722E-06
       927.9516950260      -15.7340406000       -1.4594422345    9.3819585345E-05    1.0028860884E-04   -6.4690234952E-06
       928.0517540260      -15.6339816000       -1.4504169452    9.5283539852E-05    1.0187128318E-04   -6.5877433284E-06
       928.1518130260      -15.5339226000       -1.4413351429    9.6795913146E-05    1.0350071906E-04   -6.7048059125E-06
       928.2518720260      -15.4338636000       -1.4321957525    9.8360347778E-05    1.0517956573E-04   -6.8192179469E-06
       928.3519310260      -15.3338046000       -1.4229977391    9.9979971858E-05    1.0691024516E-04   -6.9302732975E-06
       928.4519900260      -15.2337456000       -1.4137398080    1.0165833700E-04    1.0869558969E-04   -7.0372526900E-06
       928.5520490260      -15.1336866000       -1.4044208500    1.0339903200E-04    1.1053847257E-04   -7.1394405759E-06
       928.6521080260      -15.0336276000       -1.3950395659    1.0520606718E-04    1.1244200209E-04   -7.2359349145E-06
       928.7521670260      -14.9335686000       -1.3855948433    1.0708379520E-04    1.1440965478E-04   -7.3258595751E-06
       928.8522260260      -14.8335096000       -1.3760852986    1.0903686241E-04    1.1644508411E-04   -7.4082217031E-06
       928.9522850260      -14.7334506000       -1.3665096564    1.1107021897E-04    1.1855212353E-04   -7.4819045552E-06
       929.0523440260      -14.6333916000       -1.3568662821    1.1318945579E-04    1.2073515206E-04   -7.5456962688E-06
       929.1524030260      -14.5333326000       -1.3471539580    1.1540067260E-04    1.2299875108E-04   -7.5980784807E-06
       929.2524620260      -14.4332736000       -1.3373711821    1.1771080136E-04    1.2534796031E-04   -7.6371589517E-06
       929.3525210260      -14.3332146000       -1.3275161563    1.2012842010E-04    1.2778851975E-04   -7.6600996460E-06
       929.4525800260      -14.2331556000       -1.3175875824    1.2266341208E-04    1.3032638362E-04   -7.6629715404E-06
       929.5526390260      -14.1330966000       -1.3075835409    1.2532845186E-04    1.3296840080E-04   -7.6399489369E-06
       929.6526980260      -14.0330376000       -1.2975023683    1.2813925087E-04    1.3572194360E-04   -7.5826927327E-06
       929.7527570260      -13.9329786000       -1.2873422111    1.3111593270E-04    1.3859548121E-04   -7.4795485105E-06
       929.8528160260      -13.8329196000       -1.2771013093    1.3428403496E-04    1.4159813573E-04   -7.3141007720E-06
       929.9528750260      -13.7328606000       -1.2667774945    1.3767681209E-04    1.4474052581E-04   -7.0637137274E-06
       930.0529340260      -13.6328016000       -1.2563690193    1.4133731999E-04    1.4803406240E-04   -6.6967424090E-06
       930.1529930260      -13.5327426000       -1.2458735483    1.4532262296E-04    1.5149241072E-04   -6.1697877650E-06
       930.2530520260      -13.4326836000       -1.2352887348    1.4970707168E-04    1.5513110955E-04   -5.4240378755E-06
       930.3531110260      -13.3326246000       -1.2246126098    1.5458684843E-04    1.5896750435E-04   -4.3806559199E-06
       930.4531700260      -13.2325656000       -1.2138425447    1.6007788788E-04    1.6302104393E-04   -2.9431560501E-06
       930.5532290260      -13.1325066000       -1.2029760606    1.6629930428E-04    1.6731631622E-04   -1.0170119399E-06
       930.6532880260      -13.0324476000       -1.1920105655    1.7330573658E-04    1.7187992902E-04    1.4258075554E-06
       930.7533470260      -12.9323886000       -1.1809432560    1.8095673964E-04    1.7674584376E-04    4.2108958746E-06
       930.8534060260      -12.8323296000       -1.1697711514    1.8878553548E-04    1.8195146019E-04    6.8340752857E-06
       930.9534650260      -12.7322706000       -1.1584913118    1.9621204244E-04    1.8754502999E-04    8.6670124553E-06
       931.0535240260      -12.6322116000       -1.1471006053    2.0334564242E-04    1.9358248311E-04    9.7631593073E-06
       931.1535830260      -12.5321526000       -1.1355956958    2.1132130595E-04    2.0013478244E-04    1.1186523507E-05
       931.2536420260      -12.4320936000       -1.1239729817    2.2126838345E-04    2.0728822828E-04    1.3980155170E-05
       931.3537010260      -12.3320346000       -1.1122288177    2.3339688016E-04    2.1515249498E-04    1.8244385189E-05
       931.4537600260      -12.2319756000       -1.1003593150    2.4662530237E-04    2.2386501263E-04    2.2760289736E-05
       931.5538190260      -12.1319166000       -1.0883603729    2.5868584146E-04    2.3360415037E-04    2.5081691083E-05
       931.6538780260      -12.0318576000       -1.0762277115    2.6814288485E-04    2.4460021736E-04    2.3542667491E-05
       931.7539370260      -11.9317986000       -1.0639566562    2.7664068809E-04    2.5715737361E-04    1.9483314473E-05
       931.8539960260      -11.8317396000       -1.0515424126    2.8657614743E-04    2.7167729724E-04    1.4898850194E-05
       931.9540550260      -11.7316806000       -1.0389798481    2.9803807830E-04    2.8869389331E-04    9.3441849908E-06
       932.0541140260      -11.6316216000       -1.0262634640    3.1010411496E-04    3.0891336747E-04    1.1907474916E-06
       932.1541730260      -11.5315626000       -1.0133876273    3.2294003659E-04    3.3327608191E-04   -1.0336045319E-05
       932.2542320260      -11.4315036000       -1.0003460214    3.3657866240E-04    3.6293167361E-04   -2.6353011208E-05
       932.3542910260      -11.3314446000       -0.9871320759    3.5150165045E-04    3.9921402234E-04   -4.7712371885E-05
       932.4543500260      -11.2313856000       -0.9737389388    3.6946843329E-04    4.4330770419E-04   -7.3839270900E-05
       932.5544090260      -11.1313266000       -0.9601588899    3.9225540344E-04    4.9554962761E-04   -1.0329422416E-04
       932.6544680260      -11.0312676000       -0.9463841640    4.1891589237E-04    5.5429954287E-04   -1.3538365051E-04
       932.7545270260      -10.9312086000       -0.9324057908    4.4422800275E-04    6.1476072779E-04   -1.7053272504E-04
       932.8545860260      -10.8311496000       -0.9182146725    4.6080797942E-04    6.6823313030E-04   -2.0742515088E-04
       932.9546450260      -10.7310906000       -0.9038008172    4.6406605338E-04    7.0341679700E-04   -2.3935074361E-04
       933.0547040260      -10.6310316000       -0.8891533031    4.5861540584E-04    7.1224599631E-04   -2.5363059047E-04
       933.1547630260      -10.5309726000       -0.8742604468    4.5827919494E-04    6.9659650525E-04   -2.3831731031E-04
       933.2548220260      -10.4309136000       -0.8591094273    4.7330274651E-04    6.6708820243E-04   -1.9378545592E-04
       933.3548810260      -10.3308546000       -0.8436863364    4.9933204745E-04    6.3527371919E-04   -1.3594167174E-04
       933.4549400260      -10.2307956000       -0.8279760343    5.2614735137E-04    6.0841327837E-04   -8.2265927003E-05
       933.5549990260      -10.1307366000       -0.8119618500    5.5100388588E-04    5.8943266320E-04   -3.8428777325E-05
       933.6550580260      -10.0306776000       -0.7956253339    5.7531637375E-04    5.7871801725E-04   -3.4016434940E-06
       933.7551170560       -9.9306185700       -0.7789463424    6.0000711805E-04    5.7563560605E-04    2.4371512000E-05
       933.8551760560       -9.8305595700       -0.7619022796    6.2718238737E-04    5.7936819374E-04    4.7814193636E-05
       933.9552350560       -9.7305005700       -0.7444681073    6.5853542342E-04    5.8922027915E-04    6.9315144271E-05
       934.0552940560       -9.6304415700       -0.7266157458    6.9019690257E-04    6.0471343640E-04    8.5483466165E-05
       934.1553530560       -9.5303825700       -0.7083136131    7.1366395097E-04    6.2565373683E-04    8.8010214141E-05
       934.2554120560       -9.4303235700       -0.6895258181    7.2469661879E-04    6.5206574762E-04    7.2630871170E-05
       934.3554710560       -9.3302645700       -0.6702115187    7.2851125922E-04    6.8422605558E-04    4.4285203640E-05
       934.4555300560       -9.2302055700       -0.6503239287    7.3633346369E-04    7.2266205008E-04    1.3671413607E-05
       934.5555890560       -9.1301465700       -0.6298085939    7.5583243971E-04    7.6818572204E-04   -1.2353282331E-05
       934.6556480560       -9.0300875700       -0.6086021449    7.8886588249E-04    8.2194985254E-04   -3.3083970047E-05
       934.7557070560       -8.9300285700       -0.5866295906    8.3543308108E-04    8.8554226562E-04   -5.0109184535E-05
       934.8557660560       -8.8299695700       -0.5638013443    8.9604571420E-04    9.6113874017E-04   -6.5093025969E-05
       934.9558250560       -8.7299105700       -0.5400089213    9.7239507414E-04    1.0517315324E-03   -7.9336458254E-05
       935.0558840560       -8.6298515700       -0.5151187381    1.0676069121E-03    1.1614841953E-03   -9.3877283209E-05
       935.1559430560       -8.5297925700       -0.4889632094    1.1866375837E-03    1.2962987463E-03   -1.0966116257E-04
       935.2560020560       -8.4297335700       -0.4613270923    1.3370067839E-03    1.4647146226E-03   -1.2770783873E-04
       935.3560610560       -8.3296745700       -0.4319263271    1.5300561077E-03    1.6793481828E-03   -1.4929207512E-04
       935.4561200560       -8.2296155700       -0.4003723824    1.7829704591E-03    1.9591386353E-03   -1.7616817624E-04
       935.5561790560       -8.1295565700       -0.3661089143    2.1216797348E-03    2.3325473053E-03   -2.1086757049E-04
       935.6562380560       -8.0294975700       -0.3282886074    2.5839582045E-03    2.8409691934E-03   -2.5701098890E-04
       935.7562970560       -7.9294385700       -0.2855014926    3.2192526366E-03    3.5385463883E-03   -3.1929375169E-04
       935.8563560560       -7.8293795700       -0.2350506077    4.0759940930E-03    4.4782345516E-03   -4.0224045862E-04
       935.9564150560       -7.7293205700       -0.1702541455    5.1639491910E-03    5.6705535586E-03   -5.0660436765E-04
       936.0668530560       -7.6188825700        0.0000000000    6.5296947248E-03    7.1667741087E-03   -6.3707938389E-04
       936.1565330560       -7.5292025700        0.1534214972    7.6765597558E-03    8.3983649046E-03   -7.2180514880E-04
       936.2565920560       -7.4291435700        0.2231601852    8.7235852967E-03    9.5330849165E-03   -8.0949961989E-04
       936.3566510560       -7.3290845700        0.2757948193    9.4928212584E-03    1.0363414150E-02   -8.7059289131E-04
       936.4567100560       -7.2290255700        0.3198829418    1.0000807314E-02    1.0907903641E-02   -9.0709632684E-04
       936.5567690560       -7.1289665700        0.3585908772    1.0307036189E-02    1.1234196395E-02   -9.2716020632E-04
       936.6568280560       -7.0289075700        0.3935094975    1.0466605814E-02    1.1405678899E-02   -9.3907308525E-04
       936.7568870560       -6.9288485700        0.4255725932    1.0525873821E-02    1.1475618272E-02   -9.4974445140E-04
       936.8569460560       -6.8287895700        0.4553837424    1.0512389905E-02    1.1476853388E-02   -9.6446348314E-04
       936.9570050560       -6.7287305700        0.4833597766    1.0445821989E-02    1.1433022943E-02   -9.8720095326E-04
       937.0570640560       -6.6286715700        0.5098029237    1.0338877658E-02    1.1359559570E-02   -1.0206819126E-03
       937.1571230560       -6.5286125700        0.5349404533    1.0199964884E-02    1.1266511432E-02   -1.0665465480E-03
       937.2571820560       -6.4285535700        0.5589486881    1.0034936178E-02    1.1160367271E-02   -1.1254310937E-03
       937.3572410560       -6.3284945700        0.5819672929    9.8491222039E-03    1.1046213696E-02   -1.1970914925E-03
       937.4573000560       -6.2284355700        0.6041094692    9.6469348259E-03    1.0927473039E-02   -1.2805382131E-03
       937.5573590560       -6.1283765700        0.6254682818    9.4321660978E-03    1.0806384625E-02   -1.3742185269E-03
       937.6574180560       -6.0283175700        0.6461214017    9.2092405068E-03    1.0685326785E-02   -1.4760862782E-03
       937.7574770560       -5.9282585700        0.6661345308    8.9801869797E-03    1.0564034201E-02   -1.5838472210E-03
       937.8575360560       -5.8281995700        0.6855636614    8.7495806161E-03    1.0444755913E-02   -1.6951752970E-03
       937.9575950560       -5.7281405700        0.7044570969    8.5208869121E-03    1.0328362331E-02   -1.8074754189E-03
       938.0576540560       -5.6280815700        0.7228569536    8.2948136349E-03    1.0213425046E-02   -1.9186114112E-03
       938.1577130560       -5.5280225700        0.7407998670    8.0749203325E-03    1.0101280944E-02   -2.0263606116E-03
       938.2577720560       -5.4279635700        0.7583184139    7.8644255858E-03    9.9930751829E-03   -2.1286495971E-03
       938.3578310560       -5.3279045700        0.7754412192    7.6640075807E-03    9.8877945561E-03   -2.2237869754E-03
       938.4578900560       -5.2278455700        0.7921940451    7.4751788699E-03    9.7852971799E-03   -2.3101183100E-03
       938.5579490560       -5.1277865700        0.8085998553    7.2987866796E-03    9.6853331725E-03   -2.3865464929E-03
       938.6580080560       -5.0277275700        0.8246793277    7.1378977198E-03    9.5895635319E-03   -2.4516658121E-03
