# # Once                                                         FEFF 10.0.0 
# # POT  SCF  60  4.0000   0, NO core-hole, AFOLP (folp(0)= 1.150)
# # Abs   Z=29 Rmt= 1.362 Rnm= 1.399 L3 shell
# #   RGRID 0.0100
# # Pot 1 Z=29 Rmt= 1.362 Rnm= 1.399
# # Gam_ch=5.960E-01 H-L exch Vi= 3.150E+00 Vr=-2.306E+00
# # Mu=-9.659E+00eV kf=2.275E+00 Vint=-1.692E+01eV Rs_int= 1.594
# FMS rfms= 8.0000
# # PATH  Rmax=-1.000,  Keep_limit= 0.00, Heap_limit 0.00  Pwcrit= 2.50%
#  S02=1.000  Temp=   0.00  Debye_temp=   0.00  Global_sig2= 0.00000
#  Energy zero shift, vr, vi    0.00000E+00   0.00000E+00
#  Curved wave amplitude ratio filter   4.000%
#     file         sig2 tot  cw amp ratio   deg  nlegs   reff  inp sig2
#     0/   0 paths used
#  xsedge+ 50, used to normalize mu           1.0000E+00
#  -----------------------------------------------------------------------
#  omega    e    k    mu    mu0     chi     @#
       874.0318462256      -71.6940747000       -4.1094339837    1.3573222758E-04    1.3575843333E-04   -2.6205755007E-08
       884.0318462256      -61.6940747000       -3.7766075123    1.9716704526E-04    1.9719665411E-04   -2.9608849973E-08
       894.0318462256      -51.6940747000       -3.4114630419    3.2193333711E-04    3.2196159011E-04   -2.8252995666E-08
       904.0318462256      -41.6940747000       -3.0022320985    6.5001965174E-04    6.4999209840E-04    2.7553347319E-08
       905.5318462256      -40.1940747000       -2.9359316337    7.4449371262E-04    7.4443148740E-04    6.2225218114E-08
       907.0318462256      -38.6940747000       -2.8680989422    8.6243596568E-04    8.6231604021E-04    1.1992546330E-07
       908.5318462256      -37.1940747000       -2.7986227645    1.0123688488E-03    1.0121503441E-03    2.1850478198E-07
       910.0318462256      -35.6940747000       -2.7273773509    1.2069259372E-03    1.2065341022E-03    3.9183500078E-07
       911.5318462256      -34.1940747000       -2.6542201537    1.4656453160E-03    1.4649391328E-03    7.0618320208E-07
       913.0318462256      -32.6940747000       -2.5789887332    1.8195806821E-03    1.8182854981E-03    1.2951840015E-06
       914.0318462256      -31.6940747000       -2.5275906778    2.1326069002E-03    2.1306398465E-03    1.9670537174E-06
       914.5318462256      -31.1940747000       -2.5014955268    2.3202153589E-03    2.3177801770E-03    2.4351818955E-06
       915.1818962256      -30.5440247000       -2.4671567389    2.6031742597E-03    2.5999459079E-03    3.2283517921E-06
       916.3319462256      -29.3939747000       -2.4052051506    3.2446286139E-03    3.2392557974E-03    5.3728164769E-06
       917.4819962256      -28.2439247000       -2.3416146417    4.1424658817E-03    4.1334725251E-03    8.9933565938E-06
       918.6320462256      -27.0938747000       -2.2762485135    5.4343803795E-03    5.4196103199E-03    1.4770059515E-05
       919.7820962256      -25.9438247000       -2.2089491420    7.3332977746E-03    7.3111767730E-03    2.2121001635E-05
       920.9321462256      -24.7937747000       -2.1395338050    1.0124167431E-02    1.0101511807E-02    2.2655624388E-05
       922.0821962256      -23.6437247000       -2.0677893129    1.3987801171E-02    1.4006445887E-02   -1.8644716777E-05
       923.2322462256      -22.4936747000       -1.9934646306    1.8316269678E-02    1.8472793942E-02   -1.5652426365E-04
       924.3822962256      -21.3436247000       -1.9162593311    2.0886549280E-02    2.1162117167E-02   -2.7556788754E-04
       925.5323462256      -20.1935747000       -1.8358098421    1.9593152549E-02    1.9735562718E-02   -1.4241016900E-04
       926.6823962256      -19.0435247000       -1.7516695335    1.5642029215E-02    1.5598658312E-02    4.3370903028E-05
       927.8324462256      -17.8934747000       -1.6632783127    1.1612597229E-02    1.1497316896E-02    1.1528033324E-04
       928.9824962256      -16.7434247000       -1.5699181223    8.5894941805E-03    8.4605448682E-03    1.2894931223E-04
       930.1325462256      -15.5933747000       -1.4706431548    6.5377476774E-03    6.4072154167E-03    1.3053226071E-04
       931.2825962256      -14.4433247000       -1.3641626247    5.1740367654E-03    5.0431264239E-03    1.3091034145E-04
       932.4326462256      -13.2932747000       -1.2486343868    4.2645620066E-03    4.1336164427E-03    1.3094556387E-04
       933.5826962256      -12.1432247000       -1.1212654028    3.6537953781E-03    3.5238704443E-03    1.2992493382E-04
       934.0318662256      -11.6940547000       -1.0674003167    3.4740982455E-03    3.3448756481E-03    1.2922259738E-04
       935.5318662256      -10.1940547000       -0.8635050084    3.0466460452E-03    2.9195852591E-03    1.2706078607E-04
       937.0318662656       -8.6940546600       -0.5932440441    2.8231408936E-03    2.6948979729E-03    1.2824292069E-04
       938.3727462656       -7.3531746600        0.0000000000    2.7342650184E-03    2.6031647624E-03    1.3110025606E-04
       940.0318662656       -5.6940546600        0.6598987532    2.7121006657E-03    2.5847414874E-03    1.2735917836E-04
       941.5318662656       -4.1940546600        0.9105871042    2.7446996922E-03    2.6344301449E-03    1.1026954734E-04
       943.0318662656       -2.6940546600        1.1058351404    2.8045235175E-03    2.7310573394E-03    7.3466178070E-05
       944.0318662656       -1.6940546600        1.2187450524    2.8487195213E-03    2.8158760020E-03    3.2843519295E-05
       944.5318662656       -1.1940546600        1.2714454877    2.8706851955E-03    2.8633757690E-03    7.3094265126E-06
       964.0318662256       18.3059453000        2.5951311321    5.2879232968E-03    5.1648016475E-03    1.2312164928E-04
       984.0318662256       38.3059453000        3.4618017050    5.9992303562E-03    6.0821323828E-03   -8.2902026595E-05
      1004.0318662256       58.3059453000        4.1513175948    5.8722866378E-03    6.0006712399E-03   -1.2838460212E-04
      1024.0318662256       78.3059453000        4.7416033996    6.1286720379E-03    5.7499442598E-03    3.7872777804E-04
      1044.0318662256       98.3059453000        5.2661340493    5.2756224880E-03    5.5073049490E-03   -2.3168246099E-04
      1064.0318659256      118.3059450000        5.7429553591    5.0976440778E-03    5.2646048985E-03   -1.6696082071E-04
