# # Once                                                         FEFF 10.0.0 
# # POT  SCF  60  4.0000   0, NO core-hole, AFOLP (folp(0)= 1.150)
# # Abs   Z=29 Rmt= 1.362 Rnm= 1.399 L3 shell
# #   RGRID 0.0100
# # Pot 1 Z=29 Rmt= 1.362 Rnm= 1.399
# # Gam_ch=5.960E-01 H-L exch Vi= 3.870E-03 Vr= 0.000E+00
# # Mu=-7.598E+00eV kf=2.014E+00 Vint=-1.629E+01eV Rs_int= 1.801
# FMS rfms= 8.0000
# # PATH  Rmax=-1.000,  Keep_limit= 0.00, Heap_limit 0.00  Pwcrit= 2.50%
#  S02=1.000  Temp=   0.00  Debye_temp=   0.00  Global_sig2= 0.00000
#  Energy zero shift, vr, vi    0.00000E+00   0.00000E+00
#  Curved wave amplitude ratio filter   4.000%
#     file         sig2 tot  cw amp ratio   deg  nlegs   reff  inp sig2
#     0/   0 paths used
#  xsedge+ 50, used to normalize mu           1.0000E+00
#  -----------------------------------------------------------------------
#  omega    e    k    mu    mu0     chi     @#
       884.1004530744      -59.5639080000       -3.6931738027    9.2209700084E-06    9.4789056642E-06   -2.5793565577E-07
       894.1004530744      -49.5639080000       -3.3188626625    1.2295028901E-05    1.2675869340E-05   -3.8084043927E-07
       904.1004530744      -39.5639080000       -2.8965784746    1.7560077440E-05    1.8178019934E-05   -6.1794249366E-07
       914.1004530744      -29.5639080000       -2.4011421230    2.8292945138E-05    2.9469545883E-05   -1.1766007447E-06
       915.6004530744      -28.0639080000       -2.3177102721    3.0874253051E-05    3.2198681725E-05   -1.3244286737E-06
       917.1004530744      -26.5639080000       -2.2311608506    3.3914741932E-05    3.5417357531E-05   -1.5026155990E-06
       918.6004530744      -25.0639080000       -2.1411156324    3.7663353774E-05    3.9383222242E-05   -1.7198684680E-06
       920.1004530744      -23.5639080000       -2.0471135746    4.2112038045E-05    4.4101291993E-05   -1.9892539487E-06
       921.6004530744      -22.0639080000       -1.9485818940    4.7590865152E-05    4.9919584575E-05   -2.3287194226E-06
       923.1004530744      -20.5639080000       -1.8447950584    5.4503974635E-05    5.7268491401E-05   -2.7645167662E-06
       924.1004530744      -19.5639080000       -1.7722303903    6.0210478097E-05    6.3337246153E-05   -3.1267680560E-06
       924.2017420744      -19.4626190000       -1.7647139539    6.0849449085E-05    6.4016771911E-05   -3.1673228266E-06
       924.3030310744      -19.3613300000       -1.7571653655    6.1501104864E-05    6.4709755526E-05   -3.2086506620E-06
       924.4043200744      -19.2600410000       -1.7495842699    6.2165645044E-05    6.5416413643E-05   -3.2507685989E-06
       924.5056090744      -19.1587520000       -1.7419701814    6.2843505955E-05    6.6137197921E-05   -3.2936919666E-06
       924.6004530744      -19.0639080000       -1.7348102002    6.3490645787E-05    6.6825275560E-05   -3.3346297735E-06
       924.6068980744      -19.0574630000       -1.7343226043    6.3535113675E-05    6.6872551116E-05   -3.3374374405E-06
       924.7081870744      -18.9561740000       -1.7266411551    6.4240883465E-05    6.7622904140E-05   -3.3820206746E-06
       924.8094760744      -18.8548850000       -1.7189254417    6.4961202554E-05    6.8388656657E-05   -3.4274541031E-06
       924.9107650744      -18.7535960000       -1.7111748140    6.5696580344E-05    6.9170334332E-05   -3.4737539876E-06
       925.0120540744      -18.6523070000       -1.7033890453    6.6447590758E-05    6.9968519278E-05   -3.5209285204E-06
       925.1133430744      -18.5510180000       -1.6955674632    6.7214554052E-05    7.0783550436E-05   -3.5689963843E-06
       925.2146320744      -18.4497290000       -1.6877096960    6.7998092602E-05    7.1616047379E-05   -3.6179547773E-06
       925.3159210744      -18.3484400000       -1.6798151090    6.8798815304E-05    7.2466623211E-05   -3.6678079066E-06
       925.4172100744      -18.2471510000       -1.6718832445    6.9617228166E-05    7.3335790461E-05   -3.7185622954E-06
       925.5184990744      -18.1458620000       -1.6639135693    7.0454052126E-05    7.4224244791E-05   -3.7701926647E-06
       925.6197880744      -18.0445730000       -1.6559055374    7.1309814476E-05    7.5132493723E-05   -3.8226792465E-06
       925.7210770744      -17.9432840000       -1.6478587188    7.2185384107E-05    7.6061367925E-05   -3.8759838181E-06
       925.8223660744      -17.8419950000       -1.6397722180    7.3081484922E-05    7.7011488527E-05   -3.9300036050E-06
       925.9236550744      -17.7407060000       -1.6316457060    7.3998959518E-05    7.7983590744E-05   -3.9846312258E-06
       926.0249440744      -17.6394170000       -1.6234785162    7.4938767970E-05    7.8978414869E-05   -4.0396468984E-06
       926.1262330744      -17.5381280000       -1.6152701634    7.5902184346E-05    7.9996905679E-05   -4.0947213330E-06
       926.2275220744      -17.4368390000       -1.6070197521    7.6890578242E-05    8.1039815836E-05   -4.1492375940E-06
       926.3288110744      -17.3355500000       -1.5987268307    7.7905547572E-05    8.2107982906E-05   -4.2024353342E-06
       926.4301000744      -17.2342610000       -1.5903906004    7.8949084720E-05    8.3202517940E-05   -4.2534332202E-06
       926.5313890744      -17.1329720000       -1.5820104439    8.0021571502E-05    8.4324369538E-05   -4.3027980361E-06
       926.6326780744      -17.0316830000       -1.5735856594    8.1119042116E-05    8.5474628872E-05   -4.3555867556E-06
       926.7339670744      -16.9303940000       -1.5651155261    8.2234653409E-05    8.6654391354E-05   -4.4197379451E-06
       926.8352560744      -16.8291050000       -1.5565993039    8.3371123370E-05    8.7865012047E-05   -4.4938886775E-06
       926.9365450744      -16.7278160000       -1.5480362320    8.4538501078E-05    8.9107732057E-05   -4.5692309799E-06
       927.0378340744      -16.6265270000       -1.5394255978    8.5743336509E-05    9.0384245878E-05   -4.6409093688E-06
       927.1391230744      -16.5252380000       -1.5307664596    8.6988687553E-05    9.1696116289E-05   -4.7074287357E-06
       927.2404120744      -16.4239490000       -1.5220581295    8.8276130263E-05    9.3045316278E-05   -4.7691860150E-06
       927.3417010744      -16.3226600000       -1.5132996175    8.9609063744E-05    9.4433845832E-05   -4.8247820887E-06
       927.4429900744      -16.2213710000       -1.5044901887    9.0982882226E-05    9.5863039448E-05   -4.8801572226E-06
       927.5442790744      -16.1200820000       -1.4956287299    9.2392116378E-05    9.7333706831E-05   -4.9415904536E-06
       927.6455680744      -16.0187930000       -1.4867145971    9.3833051347E-05    9.8846440664E-05   -5.0133893167E-06
       927.7468570744      -15.9175040000       -1.4777466931    9.5309943107E-05    1.0040268144E-04   -5.0927383319E-06
       927.8481460744      -15.8162150000       -1.4687239603    9.6829334568E-05    1.0200444682E-04   -5.1751122494E-06
       927.9494350744      -15.7149260000       -1.4596454550    9.8396832896E-05    1.0365392414E-04   -5.2570912464E-06
       928.0507240744      -15.6136370000       -1.4505102033    1.0001732442E-04    1.0535361317E-04   -5.3362887547E-06
       928.1520130744      -15.5123480000       -1.4413169047    1.0169488798E-04    1.0710617117E-04   -5.4112831854E-06
       928.2533020744      -15.4110590000       -1.4320647385    1.0343338587E-04    1.0891443305E-04   -5.4810471798E-06
       928.3545910744      -15.3097700000       -1.4227522572    1.0523693747E-04    1.1078154604E-04   -5.5446085760E-06
       928.4558800744      -15.2084810000       -1.4133785695    1.0710961246E-04    1.1271065088E-04   -5.6010384177E-06
       928.5571690744      -15.1071920000       -1.4039422223    1.0905604433E-04    1.1470530903E-04   -5.6492647002E-06
       928.6584580744      -15.0059030000       -1.3944420960    1.1108098389E-04    1.1676921052E-04   -5.6882266289E-06
       928.7597470744      -14.9046140000       -1.3848767244    1.1318982847E-04    1.1890642790E-04   -5.7165994373E-06
       928.8610360744      -14.8033250000       -1.3752448235    1.1538836101E-04    1.2112137888E-04   -5.7330178720E-06
       928.9623250744      -14.7020360000       -1.3655450634    1.1768281434E-04    1.2341880390E-04   -5.7359895583E-06
       929.0636140744      -14.6007470000       -1.3557758306    1.2008013698E-04    1.2580389728E-04   -5.7237603030E-06
       929.1649030744      -14.4994580000       -1.3459356915    1.2258811509E-04    1.2828230099E-04   -5.6941858915E-06
       929.2661920744      -14.3981690000       -1.3360231191    1.2521595717E-04    1.3086034344E-04   -5.6443862654E-06
       929.3674810744      -14.2968800000       -1.3260364489    1.2797434601E-04    1.3354471657E-04   -5.5703705606E-06
       929.4687700744      -14.1955910000       -1.3159739536    1.3087669439E-04    1.3634316893E-04   -5.4664745472E-06
       929.5700590744      -14.0943020000       -1.3058339618    1.3393923460E-04    1.3926391994E-04   -5.3246853431E-06
       929.6713480744      -13.9930130000       -1.2956145718    1.3718288439E-04    1.4231643786E-04   -5.1335534710E-06
       929.7726370744      -13.8917240000       -1.2853139724    1.4063380059E-04    1.4551107906E-04   -4.8772784653E-06
       929.8739260744      -13.7904350000       -1.2749301537    1.4432588497E-04    1.4885951755E-04   -4.5336325810E-06
       929.9752150744      -13.6891460000       -1.2644610234    1.4830249556E-04    1.5237515471E-04   -4.0726591527E-06
       930.0765040744      -13.5878570000       -1.2539045294    1.5262138556E-04    1.5607299653E-04   -3.4516109671E-06
       930.1777930744      -13.4865680000       -1.2432584463    1.5735654324E-04    1.5996978312E-04   -2.6132398805E-06
       930.2790820744      -13.3852790000       -1.2325203664    1.6260482320E-04    1.6408508431E-04   -1.4802611103E-06
       930.3803710744      -13.2839900000       -1.2216879072    1.6848808447E-04    1.6844232180E-04    4.5762671479E-08
       930.4816600744      -13.1827010000       -1.2107584478    1.7513765531E-04    1.7306814036E-04    2.0695149510E-06
       930.5829490744      -13.0814120000       -1.1997295146    1.8263995034E-04    1.7799228817E-04    4.6476621669E-06
       930.6842380744      -12.9801230000       -1.1885982489    1.9091849716E-04    1.8325201345E-04    7.6664837097E-06
       930.7855270744      -12.8788340000       -1.1773617483    1.9957336683E-04    1.8889122234E-04    1.0682144491E-05
       930.8868160744      -12.7775450000       -1.1660168793    2.0798748251E-04    1.9496226576E-04    1.3025216748E-05
       930.9881050744      -12.6762560000       -1.1545606315    2.1607989056E-04    2.0152960236E-04    1.4550288196E-05
       931.0893940744      -12.5749670000       -1.1429896095    2.2487918005E-04    2.0867043259E-04    1.6208747459E-05
       931.1906830744      -12.4736780000       -1.1313001974    2.3564637573E-04    2.1648270946E-04    1.9163666275E-05
       931.2919720744      -12.3723890000       -1.1194886866    2.4878099204E-04    2.2508863438E-04    2.3692357655E-05
       931.3932610744      -12.2711000000       -1.1075512668    2.6336086170E-04    2.3464305681E-04    2.8717804885E-05
       931.4945500744      -12.1698110000       -1.0954837248    2.7715498914E-04    2.4534542187E-04    3.1809567270E-05
       931.5958390744      -12.0685220000       -1.0832818102    2.8851283074E-04    2.5745518888E-04    3.1057641862E-05
       931.6971280744      -11.9672330000       -1.0709407811    2.9886292344E-04    2.7131342495E-04    2.7549498487E-05
       931.7984170744      -11.8659440000       -1.0584559726    3.1074186986E-04    2.8737457442E-04    2.3367295442E-05
       931.8997060744      -11.7646550000       -1.0458221844    3.2446011604E-04    3.0624360418E-04    1.8216511858E-05
       932.0009950744      -11.6633660000       -1.0330337962    3.3918290873E-04    3.2873252698E-04    1.0450381749E-05
       932.1022840744      -11.5620770000       -1.0200850979    3.5510948453E-04    3.5590841511E-04   -7.9893058433E-07
       932.2035730744      -11.4607880000       -1.0069699579    3.7238886798E-04    3.8911515939E-04   -1.6726291415E-05
       932.3048620744      -11.3594990000       -0.9936817859    3.9167023989E-04    4.2993106410E-04   -3.8260824210E-05
       932.4061510744      -11.2582100000       -0.9802133820    4.1495351804E-04    4.7979320312E-04   -6.4839685079E-05
       932.5074400744      -11.1569210000       -0.9665573222    4.4421846183E-04    5.3923015362E-04   -9.5011691793E-05
       932.6087290744      -11.0556320000       -0.9527055368    4.7836089086E-04    6.0656175988E-04   -1.2820086902E-04
       932.7100180744      -10.9543430000       -0.9386494175    5.1168205867E-04    6.7650018506E-04   -1.6481812639E-04
       932.8113070744      -10.8530540000       -0.9243795567    5.3637875248E-04    7.3919919802E-04   -2.0282044554E-04
       932.9125960744      -10.7517650000       -0.9098859566    5.4856913024E-04    7.8193888412E-04   -2.3336975388E-04
       933.0138850744      -10.6504760000       -0.8951577197    5.5554043506E-04    7.9611176711E-04   -2.4057133205E-04
       933.1151740744      -10.5491870000       -0.8801830373    5.7423303795E-04    7.8460654524E-04   -2.1037350729E-04
       933.2164630744      -10.4478980000       -0.8649491402    6.1516967739E-04    7.5956971807E-04   -1.4440004067E-04
       933.3177520744      -10.3466090000       -0.8494420822    6.7194967003E-04    7.3356011661E-04   -6.1610446586E-05
       933.4190410744      -10.2453200000       -0.8336466200    7.3478558470E-04    7.1431949883E-04    2.0466085875E-05
       933.5203300744      -10.1440310000       -0.8175460697    8.0374968546E-04    7.0506765654E-04    9.8682028923E-05
       933.6216190744      -10.0427420000       -0.8011219376    8.8232009932E-04    7.0647081750E-04    1.7584928182E-04
       933.7229081244       -9.9414529500       -0.7843540323    9.7424681259E-04    7.1826831378E-04    2.5597849881E-04
       933.8241971244       -9.8401639500       -0.7672197104    1.0854068155E-03    7.4012626751E-04    3.4528054799E-04
       933.9254861244       -9.7388749500       -0.7496938841    1.2141089119E-03    7.7194183377E-04    4.4216707813E-04
       934.0267751244       -9.6375859500       -0.7317484239    1.3358128509E-03    8.1397575126E-04    5.2183709960E-04
       934.1280641244       -9.5362969500       -0.7133516607    1.4116291461E-03    8.6691927397E-04    5.4470987217E-04
       934.2293531244       -9.4350079500       -0.6944677681    1.4225483597E-03    9.3186418963E-04    4.9068417010E-04
       934.3306421244       -9.3337189500       -0.6750557880    1.3951020028E-03    1.0103168687E-03    3.8478513416E-04
       934.4319311244       -9.2324299500       -0.6550688559    1.3800804398E-03    1.1042903060E-03    2.7579013386E-04
       934.5332201244       -9.1311409500       -0.6344525530    1.4047470108E-03    1.2162600161E-03    1.8848699473E-04
       934.6345091244       -9.0298519500       -0.6131434182    1.4721030105E-03    1.3492934078E-03    1.2280960265E-04
       934.7357981244       -8.9285629500       -0.5910666125    1.5785880335E-03    1.5068420250E-03    7.1746008517E-05
       934.8370871244       -8.8272739500       -0.5681325576    1.7218641980E-03    1.6929070169E-03    2.8957181167E-05
       934.9383761244       -8.7259849500       -0.5442328904    1.9018723416E-03    1.9119672388E-03   -1.0094897251E-05
       935.0396651244       -8.6246959500       -0.5192343160    2.1205009333E-03    2.1690047650E-03   -4.8503831688E-05
       935.1409541244       -8.5234069500       -0.4929696855    2.3802172780E-03    2.4686875252E-03   -8.8470247221E-05
       935.2422431244       -8.4221179500       -0.4652246483    2.6841734152E-03    2.8158197779E-03   -1.3164636261E-04
       935.3435321244       -8.3208289500       -0.4357164628    3.0345971248E-03    3.2136563350E-03   -1.7905921019E-04
       935.4448211244       -8.2195399500       -0.4040590120    3.4328319337E-03    3.6642377887E-03   -2.3140585499E-04
       935.5461101244       -8.1182509500       -0.3697005831    3.8781646111E-03    4.1669015254E-03   -2.8873691428E-04
       935.6473991244       -8.0169619500       -0.3318032003    4.3671145915E-03    4.7176602782E-03   -3.5054568675E-04
       935.7486881244       -7.9156729500       -0.2889778993    4.8929186150E-03    5.3083774056E-03   -4.1545879056E-04
       935.8499771244       -7.8143839500       -0.2385855588    5.4445506493E-03    5.9263282364E-03   -4.8177758709E-04
       935.9512661244       -7.7130949500       -0.1741778443    6.0089878293E-03    6.5558465918E-03   -5.4685876251E-04
       936.0668531244       -7.5975079500        0.0000000000    6.6468060435E-03    7.2636225047E-03   -6.1681646116E-04
       936.1538441244       -7.5105169500        0.1511038608    7.1057463557E-03    7.7706591054E-03   -6.6491274964E-04
       936.2551331244       -7.4092279500        0.2223005417    7.6147378581E-03    8.3274464976E-03   -7.1270863945E-04
       936.3564221244       -7.3079389500        0.2756858446    8.0815107610E-03    8.8329128232E-03   -7.5140206217E-04
       936.4577111244       -7.2066499500        0.3202933691    8.4926833210E-03    9.2752742823E-03   -7.8259096129E-04
       936.5590001244       -7.1053609500        0.3594064177    8.8395207404E-03    9.6484663119E-03   -8.0894557155E-04
       936.6602891244       -7.0040719500        0.3946620544    9.1165624547E-03    9.9502372648E-03   -8.3367481013E-04
       936.7615781244       -6.9027829500        0.4270167303    9.3235393530E-03    1.0183725371E-02   -8.6018601815E-04
       936.8628671244       -6.8014939500        0.4570868904    9.4616468962E-03    1.0353444373E-02   -8.9179747655E-04
       936.9641561244       -6.7002049500        0.4852973826    9.5362163488E-03    1.0467475665E-02   -9.3125931653E-04
       937.0654451244       -6.5989159500        0.5119557991    9.5523496026E-03    1.0533067179E-02   -9.8071757630E-04
       937.1667341244       -6.4976269500        0.5372931269    9.5187823378E-03    1.0560229453E-02   -1.0414471152E-03
       937.2680231244       -6.3963379500        0.5614882383    9.4411340896E-03    1.0554989967E-02   -1.1138558774E-03
       937.3693121244       -6.2950489500        0.5846830187    9.3268309867E-03    1.0524261868E-02   -1.1974308816E-03
       937.4706011244       -6.1937599500        0.6069920673    9.1835785866E-03    1.0474799957E-02   -1.2912213704E-03
       937.5718901244       -6.0924709500        0.6285097300    9.0167397775E-03    1.0410144558E-02   -1.3934047804E-03
       937.6731791244       -5.9911819500        0.6493147501    8.8329267084E-03    1.0334833647E-02   -1.5019069383E-03
       937.7744681244       -5.8898929500        0.6694735112    8.6368783585E-03    1.0251459304E-02   -1.6145809450E-03
       937.8757571244       -5.7886039500        0.6890427753    8.4349021164E-03    1.0163841521E-02   -1.7289394045E-03
       937.9770461244       -5.6873149500        0.7080714020    8.2295941507E-03    1.0072147660E-02   -1.8425535095E-03
       938.0783351244       -5.5860259500        0.7266018312    8.0245869443E-03    9.9779914458E-03   -1.9534045015E-03
       938.1796241244       -5.4847369500        0.7446713270    7.8254971716E-03    9.8845453829E-03   -2.0590482114E-03
       938.2809131244       -5.3834479500        0.7623126671    7.6326018495E-03    9.7906201604E-03   -2.1580183109E-03
       938.3822021244       -5.2821589500        0.7795548174    7.4491422662E-03    9.6977245882E-03   -2.2485823220E-03
       938.4834911244       -5.1808699500        0.7964238051    7.2769370808E-03    9.6061312734E-03   -2.3291941926E-03
       938.5847801244       -5.0795809500        0.8129427952    7.1172091020E-03    9.5159109189E-03   -2.3987018169E-03
       938.6860691244       -4.9782919500        0.8291327712    6.9718929146E-03    9.4279770553E-03   -2.4560841407E-03
