# # Once                                                         FEFF 10.0.0 
# # POT  SCF  60  4.0000   0, NO core-hole, AFOLP (folp(0)= 1.150)
# # Abs   Z=29 Rmt= 1.362 Rnm= 1.399 L3 shell
# #   RGRID 0.0100
# # Pot 1 Z=29 Rmt= 1.362 Rnm= 1.399
# # Gam_ch=5.960E-01 H-L exch Vi= 4.000E-05 Vr= 1.477E+00
# # Mu=-7.619E+00eV kf=2.012E+00 Vint=-1.628E+01eV Rs_int= 1.802
# FMS rfms= 8.0000
# # PATH  Rmax=-1.000,  Keep_limit= 0.00, Heap_limit 0.00  Pwcrit= 2.50%
#  S02=1.000  Temp=   0.00  Debye_temp=   0.00  Global_sig2= 0.00000
#  Energy zero shift, vr, vi    0.00000E+00   0.00000E+00
#  Curved wave amplitude ratio filter   4.000%
#     file         sig2 tot  cw amp ratio   deg  nlegs   reff  inp sig2
#     0/   0 paths used
#  xsedge+ 50, used to normalize mu           1.0000E+00
#  -----------------------------------------------------------------------
#  omega    e    k    mu    mu0     chi     @#
       884.1494905644      -59.5366233000       -3.6385516999    1.0387682390E-05    1.0623356975E-05   -2.3567458415E-07
       894.1494905644      -49.5366233000       -3.2579711417    1.4122381734E-05    1.4467998089E-05   -3.4561635510E-07
       904.1494905644      -39.5366233000       -2.8266044285    2.0800862952E-05    2.1354752990E-05   -5.5389003815E-07
       914.1494905644      -29.5366233000       -2.3162488652    3.5466232006E-05    3.6493017552E-05   -1.0267855468E-06
       915.6494905644      -28.0366233000       -2.2296427161    3.9212641511E-05    4.0360626630E-05   -1.1479851196E-06
       917.1494905644      -26.5366233000       -2.1395338050    4.3734961327E-05    4.5026876955E-05   -1.2919156286E-06
       918.6494905644      -25.0366233000       -2.0454589493    4.9371120029E-05    5.0835327789E-05   -1.4642077599E-06
       920.1494905644      -23.5366233000       -1.9468435282    5.6313670931E-05    5.7986655907E-05   -1.6729849761E-06
       921.6494905644      -22.0366233000       -1.8429587986    6.5167420570E-05    6.7095643894E-05   -1.9282233245E-06
       923.1494905644      -20.5366233000       -1.7328574579    7.6803586239E-05    7.9046058565E-05   -2.2424723256E-06
       924.1494905644      -19.5366233000       -1.6553931573    8.6790550034E-05    8.9281912280E-05   -2.4913622465E-06
       924.2495055644      -19.4366083000       -1.6474451974    8.7915641156E-05    9.0433777624E-05   -2.5181364677E-06
       924.3495205644      -19.3365933000       -1.6394587069    8.9066861988E-05    9.1612119952E-05   -2.5452579637E-06
       924.4495355644      -19.2365783000       -1.6314331852    9.0245003031E-05    9.2817726597E-05   -2.5727235664E-06
       924.5495505644      -19.1365633000       -1.6233679223    9.1450936320E-05    9.4051471018E-05   -2.6005346980E-06
       924.6494905644      -19.0366233000       -1.6152684504    9.2684824677E-05    9.5313488923E-05   -2.6286642458E-06
       924.7495805644      -18.9365333000       -1.6071159752    9.3950406344E-05    9.6607579317E-05   -2.6571729733E-06
       924.8495955644      -18.8365183000       -1.5989280568    9.5245845272E-05    9.7931835182E-05   -2.6859899106E-06
       924.9496105644      -18.7365033000       -1.5906980597    9.6573289747E-05    9.9288421840E-05   -2.7151320925E-06
       925.0496255644      -18.6364883000       -1.5824252599    9.7933837605E-05    1.0067842120E-04   -2.7445835943E-06
       925.1496405644      -18.5364733000       -1.5741088474    9.9328745675E-05    1.0210307847E-04   -2.7743327919E-06
       925.2496555644      -18.4364583000       -1.5657483992    1.0075929088E-04    1.0356365326E-04   -2.8043623790E-06
       925.3496705644      -18.3364433000       -1.5573430694    1.0222670735E-04    1.0506135446E-04   -2.8346471118E-06
       925.4496855644      -18.2364283000       -1.5488920585    1.0373248871E-04    1.0659764766E-04   -2.8651589507E-06
       925.5497005644      -18.1364133000       -1.5403946148    1.0527805462E-04    1.0817390714E-04   -2.8958525222E-06
       925.6497155644      -18.0363983000       -1.5318501740    1.0686498492E-04    1.0979167186E-04   -2.9266869347E-06
       925.7497305644      -17.9363833000       -1.5232578054    1.0849504128E-04    1.1145261015E-04   -2.9575688682E-06
       925.8497455644      -17.8363683000       -1.5146165528    1.1016993065E-04    1.1315832676E-04   -2.9883961152E-06
       925.9497605644      -17.7363533000       -1.5059258574    1.1189153929E-04    1.1491056462E-04   -3.0190253248E-06
       926.0497755644      -17.6363383000       -1.4971847161    1.1366204756E-04    1.1671124995E-04   -3.0492023925E-06
       926.1497905644      -17.5363233000       -1.4883920971    1.1548365196E-04    1.1856222817E-04   -3.0785762033E-06
       926.2498055644      -17.4363083000       -1.4795472983    1.1735911150E-04    1.2046568719E-04   -3.1065756891E-06
       926.3498205644      -17.3362933000       -1.4706493783    1.1929125265E-04    1.2242367193E-04   -3.1324192785E-06
       926.4498355644      -17.2362783000       -1.4616972214    1.2128347920E-04    1.2443856706E-04   -3.1550878591E-06
       926.5498505644      -17.1362633000       -1.4526898982    1.2333796990E-04    1.2651272607E-04   -3.1747561692E-06
       926.6498655644      -17.0362483000       -1.4436264498    1.2545313379E-04    1.2864871736E-04   -3.1955835705E-06
       926.7498805644      -16.9362333000       -1.4345056639    1.2762383129E-04    1.3084943341E-04   -3.2256021213E-06
       926.8498955644      -16.8362183000       -1.4253265892    1.2985226849E-04    1.3311762817E-04   -3.2653596819E-06
       926.9499105644      -16.7362033000       -1.4160879419    1.3215011236E-04    1.3545651352E-04   -3.3064011591E-06
       927.0499255644      -16.6361883000       -1.4067886996    1.3452664090E-04    1.3786945685E-04   -3.3428159595E-06
       927.1499405644      -16.5361733000       -1.3974274241    1.3698705563E-04    1.4036028286E-04   -3.3732272251E-06
       927.2499555644      -16.4361583000       -1.3880031671    1.3953581800E-04    1.4293288810E-04   -3.3970701034E-06
       927.3499705644      -16.3361433000       -1.3785144051    1.4217949672E-04    1.4559157085E-04   -3.4120741292E-06
       927.4499855644      -16.2361283000       -1.3689599523    1.4491470275E-04    1.4834034791E-04   -3.4256451671E-06
       927.5500005644      -16.1361133000       -1.3593381888    1.4774205872E-04    1.5118271168E-04   -3.4406529653E-06
       927.6500155644      -16.0360983000       -1.3496479903    1.5065838500E-04    1.5412206944E-04   -3.4636844342E-06
       927.7500305644      -15.9360833000       -1.3398877131    1.5366958901E-04    1.5716272638E-04   -3.4931373709E-06
       927.8500455644      -15.8360683000       -1.3300556545    1.5678496063E-04    1.6030954352E-04   -3.5245828875E-06
       927.9500605644      -15.7360533000       -1.3201504929    1.6001400138E-04    1.6356822815E-04   -3.5542267674E-06
       928.0500755644      -15.6360383000       -1.3101704889    1.6336545806E-04    1.6694484362E-04   -3.5793855646E-06
       928.1500905644      -15.5360233000       -1.3001137144    1.6684745250E-04    1.7044587113E-04   -3.5984186327E-06
       928.2501055644      -15.4360083000       -1.2899787039    1.7046826392E-04    1.7407827340E-04   -3.6100094782E-06
       928.3501205644      -15.3359933000       -1.2797633491    1.7423648221E-04    1.7784960400E-04   -3.6131217831E-06
       928.4501355644      -15.2359783000       -1.2694657943    1.7816096289E-04    1.8176772686E-04   -3.6067639649E-06
       928.5501505644      -15.1359633000       -1.2590841072    1.8225162987E-04    1.8584138457E-04   -3.5897546977E-06
       928.6501655644      -15.0359483000       -1.2486160188    1.8651874807E-04    1.9007965760E-04   -3.5609095366E-06
       928.7501805644      -14.9359333000       -1.2380595092    1.9097372995E-04    1.9449259296E-04   -3.5188630161E-06
       928.8501955644      -14.8359183000       -1.2274120804    1.9562886922E-04    1.9909099197E-04   -3.4621227516E-06
       928.9502105644      -14.7359033000       -1.2166715204    2.0049730200E-04    2.0388643044E-04   -3.3891284419E-06
       929.0502255644      -14.6358883000       -1.2058353404    2.0559342240E-04    2.0889144500E-04   -3.2980225930E-06
       929.1502405644      -14.5358733000       -1.1949009391    2.1093306960E-04    2.1411987160E-04   -3.1868020047E-06
       929.2502555644      -14.4358583000       -1.1838654601    2.1653382000E-04    2.1958660364E-04   -3.0527836369E-06
       929.3502705644      -14.3358433000       -1.1727261859    2.2241532114E-04    2.2530784839E-04   -2.8925272453E-06
       929.4502855644      -14.2358283000       -1.1614799929    2.2860002475E-04    2.3130130268E-04   -2.7012779297E-06
       929.5503005644      -14.1358133000       -1.1501238834    2.3511419570E-04    2.3758659592E-04   -2.4724002167E-06
       929.6503155644      -14.0357983000       -1.1386545688    2.4198820014E-04    2.4418487850E-04   -2.1966783633E-06
       929.7503305644      -13.9357833000       -1.1270685457    2.4925830021E-04    2.5111982197E-04   -1.8615217630E-06
       929.8503455644      -13.8357683000       -1.1153621295    2.5696784628E-04    2.5841731319E-04   -1.4494669064E-06
       929.9503605644      -13.7357533000       -1.1035315852    2.6516932532E-04    2.6610600884E-04   -9.3668352553E-07
       930.0503755644      -13.6357383000       -1.0915728769    2.7392679922E-04    2.7421779996E-04   -2.9100074224E-07
       930.1503905644      -13.5357233000       -1.0794815480    2.8332086120E-04    2.8278821533E-04    5.3264586845E-07
       930.2504055644      -13.4357083000       -1.0672532903    2.9345176885E-04    2.9185783112E-04    1.5939377321E-06
       930.3504205644      -13.3356933000       -1.0548833421    3.0444294550E-04    3.0146990159E-04    2.9730439169E-06
       930.4504355644      -13.2356783000       -1.0423666078    3.1644320121E-04    3.1167535292E-04    4.7678482900E-06
       930.5504505644      -13.1356633000       -1.0296977347    3.2960714976E-04    3.2253088796E-04    7.0762618023E-06
       930.6504655644      -13.0356483000       -1.0168710363    3.4403385529E-04    3.3410207015E-04    9.9317851329E-06
       930.7504805644      -12.9356333000       -1.0038804631    3.5963830769E-04    3.4646257269E-04    1.3175735004E-05
       930.8504955644      -12.8356183000       -0.9907195687    3.7601773206E-04    3.5969778753E-04    1.6319944526E-05
       930.9505105644      -12.7356033000       -0.9773813640    3.9264080081E-04    3.7390745993E-04    1.8733340878E-05
       931.0505255644      -12.6355883000       -0.9638586535    4.0963992519E-04    3.8920650067E-04    2.0433424516E-05
       931.1505405644      -12.5355733000       -0.9501436155    4.2819620450E-04    4.0573230746E-04    2.2463897043E-05
       931.2505555644      -12.4355583000       -0.9362275418    4.4954173350E-04    4.2364615303E-04    2.5895580461E-05
       931.3505705644      -12.3355433000       -0.9221015326    4.7402426689E-04    4.4314203632E-04    3.0882230575E-05
       931.4505855644      -12.2355283000       -0.9077557580    5.0072837934E-04    4.6445646449E-04    3.6271914851E-05
       931.5506005644      -12.1355133000       -0.8931795989    5.2753422234E-04    4.8787636209E-04    3.9657860255E-05
       931.6506155644      -12.0354983000       -0.8783615253    5.5305822256E-04    5.1376156196E-04    3.9296660602E-05
       931.7506305644      -11.9354833000       -0.8632892034    5.7898422721E-04    5.4255939084E-04    3.6424836373E-05
       931.8506455644      -11.8354683000       -0.8479489501    6.0795482141E-04    5.7484133935E-04    3.3113482068E-05
       931.9506605644      -11.7354533000       -0.8323260470    6.4038675887E-04    6.1133616463E-04    2.9050594231E-05
       932.0506755644      -11.6354383000       -0.8164042676    6.7559595335E-04    6.5298274312E-04    2.2613210226E-05
       932.1506905644      -11.5354233000       -0.8001657045    7.1400218510E-04    7.0096761126E-04    1.3034573844E-05
       932.2507055644      -11.4354083000       -0.7835906974    7.5605024577E-04    7.5678802566E-04   -7.3777989221E-07
       932.3507205644      -11.3353933000       -0.7666574252    8.0258848341E-04    8.2215364095E-04   -1.9565157547E-05
       932.4507355644      -11.2353783000       -0.7493416004    8.5584557780E-04    8.9873248405E-04   -4.2886906251E-05
       932.5507505644      -11.1353633000       -0.7316160609    9.1829020536E-04    9.8748867824E-04   -6.9198472881E-05
       932.6507655644      -11.0353483000       -0.7134503067    9.8993372780E-04    1.0876108710E-03   -9.7677143225E-05
       932.7507805644      -10.9353333000       -0.6948097341    1.0666983435E-03    1.1953331348E-03   -1.2863479131E-04
       932.8507955644      -10.8353183000       -0.6756550844    1.1424004803E-03    1.3032091235E-03   -1.6080864324E-04
       932.9508105644      -10.7353033000       -0.6559413233    1.2136792273E-03    1.4013378296E-03   -1.8765860226E-04
       933.0508255644      -10.6352883000       -0.6356164300    1.2864791278E-03    1.4830109780E-03   -1.9653185024E-04
       933.1508405644      -10.5352733000       -0.6146198005    1.3768154102E-03    1.5517417786E-03   -1.7492636836E-04
       933.2508555644      -10.4352583000       -0.5928800039    1.4986705429E-03    1.6207240801E-03   -1.2205353718E-04
       933.3508705644      -10.3352433000       -0.5703121765    1.6525679170E-03    1.7053305970E-03   -5.2762679979E-05
       933.4508855644      -10.2352283000       -0.5468136841    1.8338540411E-03    1.8181012352E-03    1.5752805819E-05
       933.5509005644      -10.1352133000       -0.5222589953    2.0471295026E-03    1.9689507982E-03    7.8178704352E-05
       933.6509155644      -10.0351983000       -0.4964913742    2.3047057508E-03    2.1679078626E-03    1.3679788825E-04
       933.7509305644       -9.9351833000       -0.4693110744    2.6231441190E-03    2.4280148483E-03    1.9512927071E-04
       933.8509455644       -9.8351683000       -0.4404567073    3.0274669547E-03    2.7684362174E-03    2.5903073731E-04
       933.9509605644       -9.7351533000       -0.4095746135    3.5541327923E-03    3.2184309323E-03    3.3570186003E-04
       934.0509755644       -9.6351383000       -0.3761656247    4.2530047131E-03    3.8235443109E-03    4.2946040218E-04
       934.1509905644       -9.5351233000       -0.3394846344    5.1986160313E-03    4.6550203189E-03    5.4359571234E-04
       934.2510055644       -9.4351083000       -0.2983271192    6.5124161376E-03    5.8216371288E-03    6.9077900883E-04
       934.3510205644       -9.3350933000       -0.2504961008    8.3686646362E-03    7.4715236159E-03    8.9714102028E-04
       934.4510355644       -9.2350783000       -0.1910432664    1.0919724719E-02    9.7359629405E-03    1.1837617784E-03
       934.5900905644       -9.0960233000        0.0000000000    1.5316300335E-02    1.3686525409E-02    1.6297749255E-03
       934.6510655644       -9.0350483000        0.1265069331    1.7151353510E-02    1.5390905697E-02    1.7604478133E-03
       934.7510805644       -8.9350333000        0.2055596532    1.9466821804E-02    1.7663817076E-02    1.8030047281E-03
       934.8510955644       -8.8350183000        0.2617356133    2.0709055882E-02    1.9078265832E-02    1.6307900499E-03
       934.9511105644       -8.7350033000        0.3078251313    2.1070030073E-02    1.9751236805E-02    1.3187932673E-03
       935.0511255644       -8.6349883000        0.3478607168    2.0868671389E-02    1.9918363418E-02    9.5030797074E-04
       935.1511405644       -8.5349733000        0.3837418905    2.0355173006E-02    1.9773454865E-02    5.8171814144E-04
       935.2511555644       -8.4349583000        0.4165436337    1.9689820843E-02    1.9447304843E-02    2.4251600050E-04
       935.3511705644       -8.3349433000        0.4469444846    1.8965819605E-02    1.9020359832E-02   -5.4540227541E-05
       935.4511855644       -8.2349283000        0.4754052018    1.8236301606E-02    1.8542458650E-02   -3.0615704355E-04
       935.5512005644       -8.1349133000        0.5022558174    1.7528749833E-02    1.8042599413E-02   -5.1384958060E-04
       935.6512155644       -8.0348983000        0.5277420074    1.6860244669E-02    1.7540710113E-02   -6.8046544411E-04
       935.7512305644       -7.9348833000        0.5520528960    1.6237857476E-02    1.7048163909E-02   -8.1030643340E-04
       935.8512455644       -7.8348683000        0.5753374431    1.5662535852E-02    1.6570305706E-02   -9.0776985358E-04
       935.9512605644       -7.7348533000        0.5977156071    1.5134141449E-02    1.6110763079E-02   -9.7662163077E-04
       936.0512755644       -7.6348383000        0.6192856534    1.4650697395E-02    1.5671997087E-02   -1.0212996924E-03
       936.1512905644       -7.5348233000        0.6401292584    1.4247567856E-02    1.5283393633E-02   -1.0358257770E-03
       936.2513055644       -7.4348083000        0.6603152789    1.3883604316E-02    1.4919948814E-02   -1.0363444977E-03
       936.3513205644       -7.3347933000        0.6799022095    1.3542953015E-02    1.4571867228E-02   -1.0289142128E-03
       936.4513355644       -7.2347783000        0.6989404753    1.3224046325E-02    1.4240954297E-02   -1.0169079722E-03
       936.5513505644       -7.1347633000        0.7174737358    1.2921181476E-02    1.3924896931E-02   -1.0037154551E-03
       936.6513655644       -7.0347483000        0.7355401656    1.2631670920E-02    1.3624490427E-02   -9.9281950712E-04
       936.7513805644       -6.9347333000        0.7531733237    1.2351229228E-02    1.3338803546E-02   -9.8757431770E-04
       936.8513955644       -6.8347183000        0.7704030648    1.2075440979E-02    1.3066310436E-02   -9.9086945750E-04
       936.9514105644       -6.7347033000        0.7872557753    1.1802818007E-02    1.2807996106E-02   -1.0051780991E-03
       937.0514255644       -6.6346883000        0.8037552048    1.1530182736E-02    1.2562434511E-02   -1.0322517750E-03
       937.1514405644       -6.5346733000        0.8199226485    1.1255704825E-02    1.2328857049E-02   -1.0731522238E-03
       937.2514555644       -6.4346583000        0.8357774045    1.0979123729E-02    1.2107206413E-02   -1.1280826842E-03
       937.3514705644       -6.3346433000        0.8513370053    1.0698520359E-02    1.1895178247E-02   -1.1966578875E-03
       937.4514855644       -6.2346283000        0.8666172570    1.0416624340E-02    1.1694262475E-02   -1.2776381344E-03
       937.5515005644       -6.1346133000        0.8816327148    1.0133417178E-02    1.1502767894E-02   -1.3693507161E-03
       937.6515155644       -6.0345983000        0.8963966555    9.8511393123E-03    1.1320851509E-02   -1.4697121969E-03
       937.7515305644       -5.9345833000        0.9109213674    9.5701851302E-03    1.1146536527E-02   -1.5763513970E-03
       937.8515455644       -5.8345683000        0.9252180597    9.2938600115E-03    1.0980734240E-02   -1.6868742286E-03
       937.9515605644       -5.7345533000        0.9392972291    9.0233299254E-03    1.0822255121E-02   -1.7989251953E-03
       938.0515755644       -5.6345383000        0.9531684591    8.7619975364E-03    1.0671824861E-02   -1.9098273250E-03
       938.1515905644       -5.5345233000        0.9668406444    8.5095457639E-03    1.0527091261E-02   -2.0175454972E-03
       938.2516055644       -5.4345083000        0.9803221675    8.2694665555E-03    1.0389639250E-02   -2.1201726941E-03
       938.3516205644       -5.3344933000        0.9936208426    8.0423643718E-03    1.0257993226E-02   -2.2156288545E-03
       938.4516355644       -5.2344783000        1.0067437572    7.8290161559E-03    1.0131627211E-02   -2.3026110547E-03
       938.5516505644       -5.1344633000        1.0196979582    7.6312739160E-03    1.0010970784E-02   -2.3796968678E-03
       938.6516655644       -5.0344483000        1.0324895381    7.4497808118E-03    9.8954126527E-03   -2.4456318409E-03
