# # Once                                                         FEFF 10.0.0 
# # POT  SCF  60  4.0000   0, NO core-hole, AFOLP (folp(0)= 1.150)
# # Abs   Z=29 Rmt= 1.362 Rnm= 1.399 L3 shell
# #   RGRID 0.0100
# # Pot 1 Z=29 Rmt= 1.362 Rnm= 1.399
# # Gam_ch=5.960E-01 H-L exch Vi= 1.501E+00 Vr= 2.449E+00
# # Mu=-6.025E+00eV kf=2.113E+00 Vint=-1.685E+01eV Rs_int= 1.717
# FMS rfms= 8.0000
# # PATH  Rmax=-1.000,  Keep_limit= 0.00, Heap_limit 0.00  Pwcrit= 2.50%
#  S02=1.000  Temp=   0.00  Debye_temp=   0.00  Global_sig2= 0.00000
#  Energy zero shift, vr, vi    0.00000E+00   0.00000E+00
#  Curved wave amplitude ratio filter   4.000%
#     file         sig2 tot  cw amp ratio   deg  nlegs   reff  inp sig2
#     0/   0 paths used
#  xsedge+ 50, used to normalize mu           1.0000E+00
#  -----------------------------------------------------------------------
#  omega    e    k    mu    mu0     chi     @#
       879.2950710788      -62.7974101000       -3.7759958371    8.0045292842E-05    7.9696553466E-05    3.4873937614E-07
       889.2950710788      -52.7974101000       -3.4107858839    1.1485742244E-04    1.1430796829E-04    5.4945414462E-07
       899.2950710788      -42.7974101000       -3.0014626156    1.8443620464E-04    1.8347543592E-04    9.6076871491E-07
       909.2950710788      -32.7974101000       -2.5266767344    3.6827885801E-04    3.6634473467E-04    1.9341233387E-06
       910.7950710788      -31.2974101000       -2.4475277945    4.2233766798E-04    4.2015737973E-04    2.1802882470E-06
       912.2950710788      -29.7974101000       -2.3657325644    4.9073053038E-04    4.8826046463E-04    2.4700657520E-06
       913.7950710788      -28.2974101000       -2.2810058200    5.7917475632E-04    5.7635788901E-04    2.8168673117E-06
       915.2950710788      -26.7974101000       -2.1930081990    6.9704715184E-04    6.9379940519E-04    3.2477466473E-06
       916.7950710788      -25.2974101000       -2.1013289182    8.5995743250E-04    8.5612872176E-04    3.8287107356E-06
       918.2950710788      -23.7974101000       -2.0054625918    1.0936234937E-03    1.0888859850E-03    4.7375086891E-06
       919.2950710788      -22.7974101000       -1.9389204165    1.3113933752E-03    1.3056249483E-03    5.7684268388E-06
       919.7950710788      -22.2974101000       -1.9047775768    1.4472348539E-03    1.4406956505E-03    6.5392034491E-06
       919.8954680788      -22.1970131000       -1.8978479820    1.4771889370E-03    1.4704644606E-03    6.7244764770E-06
       920.4958650788      -21.5966161000       -1.8558667906    1.6785860890E-03    1.6704579572E-03    8.1281318160E-06
       921.0962620788      -20.9962191000       -1.8129137703    1.9266260773E-03    1.9163533975E-03    1.0272679834E-05
       921.6966590788      -20.3958221000       -1.7689181286    2.2369322938E-03    2.2232649647E-03    1.3667329163E-05
       922.2970560788      -19.7954251000       -1.7237999130    2.6320580946E-03    2.6128544443E-03    1.9203650320E-05
       922.8974530788      -19.1950281000       -1.6774686725    3.1454963602E-03    3.1170604009E-03    2.8435959319E-05
       923.4978500788      -18.5946311000       -1.6298207658    3.8279592518E-03    3.7839747322E-03    4.3984519590E-05
       924.0982470788      -17.9942341000       -1.5807374026    4.7576215325E-03    4.6877302162E-03    6.9891316231E-05
       924.6986440788      -17.3938371000       -1.5300801670    6.0560242576E-03    5.9452566880E-03    1.1076756957E-04
       925.2990410788      -16.7934401000       -1.4776874201    7.9067019571E-03    7.7426827120E-03    1.6401924508E-04
       925.8994380788      -16.1930431000       -1.4233675277    1.0552262030E-02    1.0368278303E-02    1.8398372728E-04
       926.4998350788      -15.5926461000       -1.3668906003    1.4194591835E-02    1.4216023371E-02   -2.1431536086E-05
       927.1002320788      -14.9922491000       -1.3079773344    1.8722858957E-02    1.9581700393E-02   -8.5884143645E-04
       927.7006290788      -14.3918521000       -1.2462822721    2.3442258846E-02    2.5796582096E-02   -2.3543232504E-03
       928.3010260788      -13.7914551000       -1.1813696695    2.7065035844E-02    2.9946271616E-02   -2.8812357718E-03
       928.9014230788      -13.1910581000       -1.1126766391    2.8091708132E-02    2.8839394937E-02   -7.4768680464E-04
       929.5018200788      -12.5906611000       -1.0394537496    2.5739394787E-02    2.3781040564E-02    1.9583542223E-03
       930.1022170788      -11.9902641000       -0.9606659139    2.1118170257E-02    1.8321107178E-02    2.7970630787E-03
       930.7026140788      -11.3898671000       -0.8748106573    1.6427207051E-02    1.4090208636E-02    2.3369984149E-03
       931.3030110788      -10.7894701000       -0.7795566604    1.2797286211E-02    1.1149462468E-02    1.6478237427E-03
       931.9034080788      -10.1890731000       -0.6709123498    1.0260780895E-02    9.1591803912E-03    1.1016005035E-03
       932.5038050888       -9.5886760900       -0.5408680571    8.5337529221E-03    7.8096067303E-03    7.2414619177E-04
       933.1042020888       -8.9882790900       -0.3673595825    7.3518286284E-03    6.8858418813E-03    4.6598674715E-04
       933.6183710888       -8.4741100900        0.0000000000    6.6307949329E-03    6.3262288158E-03    3.0456611709E-04
       934.3049960888       -7.7874850900        0.4245200608    5.9512005387E-03    5.8070661370E-03    1.4413440170E-04
       934.9053930888       -7.1870880900        0.5812077836    5.5510042231E-03    5.5028554757E-03    4.8148747463E-05
       935.5057900888       -6.5866910900        0.7038377940    5.2975394251E-03    5.2967072492E-03    8.3217591928E-07
       936.1061870888       -5.9862940900        0.8080673194    5.1734786768E-03    5.1618416362E-03    1.1637040675E-05
       936.7065840888       -5.3858970900        0.9003099162    5.1701213240E-03    5.0963527936E-03    7.3768530371E-05
       937.3069810888       -4.7855000900        0.9839426563    5.2269117836E-03    5.0653439644E-03    1.6156781922E-04
       937.9073780888       -4.1851030900        1.0610034668    5.2968201901E-03    5.0602904997E-03    2.3652969040E-04
       938.5077750888       -3.5847060900        1.1328343049    5.3466777770E-03    5.0729269071E-03    2.7375086987E-04
       939.1081720888       -2.9843090900        1.2003743839    5.3795562527E-03    5.0994475443E-03    2.8010870844E-04
       939.2950810888       -2.7974000900        1.2206376896    5.3896434211E-03    5.1097056887E-03    2.7993773246E-04
       940.7950810888       -1.2974000900        1.3724645178    5.5411006597E-03    5.2163889975E-03    3.2471166220E-04
       942.2950810918        0.2025999130        1.5090928499    5.6625347356E-03    5.3444213821E-03    3.1811335350E-04
       943.7950810888        1.7025999100        1.6343389549    5.5670692189E-03    5.4777528382E-03    8.9316380709E-05
       945.2950810888        3.2025999100        1.7506473650    5.3925340239E-03    5.6091978211E-03   -2.1666379720E-04
       946.7950810888        4.7025999100        1.8596958854    5.2531491098E-03    5.7359823043E-03   -4.8283319449E-04
       948.2950810888        6.2025999100        1.9626947642    5.1942559497E-03    5.8569512897E-03   -6.6269533997E-04
       949.2950710888        7.2025899100        2.0284566632    5.2166597440E-03    5.9342070738E-03   -7.1754732988E-04
       949.7950810888        7.7025999100        2.0605518079    5.2432165328E-03    5.9717178810E-03   -7.2850134819E-04
       969.2950710788       27.2025899000        3.0600657365    7.1638362503E-03    6.5907329652E-03    5.7310328508E-04
       989.2950710788       47.2025899000        3.8227436535    6.1903088482E-03    6.5089890149E-03   -3.1868016664E-04
      1009.2950710788       67.2025899000        4.4567629250    6.0143385817E-03    6.1565480026E-03   -1.4220942093E-04
      1029.2950710788       87.2025899000        5.0111973711    6.3101882902E-03    5.8395360432E-03    4.7065224706E-04
      1049.2950711788      107.2025900000        5.5101240933    5.3542604626E-03    5.5634995447E-03   -2.0923908217E-04
