# # Once                                                         FEFF 10.0.0 
# # POT  SCF  60  4.0000   0, NO core-hole, AFOLP (folp(0)= 1.150)
# # Abs   Z=29 Rmt= 1.362 Rnm= 1.399 L3 shell
# #   RGRID 0.0100
# # Pot 1 Z=29 Rmt= 1.362 Rnm= 1.399
# # Gam_ch=5.960E-01 H-L exch Vi= 3.588E-01 Vr=-1.949E+00
# # Mu=-6.025E+00eV kf=2.113E+00 Vint=-1.685E+01eV Rs_int= 1.717
# FMS rfms= 8.0000
# # PATH  Rmax=-1.000,  Keep_limit= 0.00, Heap_limit 0.00  Pwcrit= 2.50%
#  S02=1.000  Temp=   0.00  Debye_temp=   0.00  Global_sig2= 0.00000
#  Energy zero shift, vr, vi    0.00000E+00   0.00000E+00
#  Curved wave amplitude ratio filter   4.000%
#     file         sig2 tot  cw amp ratio   deg  nlegs   reff  inp sig2
#     0/   0 paths used
#  xsedge+ 50, used to normalize mu           1.0000E+00
#  -----------------------------------------------------------------------
#  omega    e    k    mu    mu0     chi     @#
       879.2950311463      -62.7974201000       -3.9258532284    1.8210913008E-05    1.8241622318E-05   -3.0709310049E-08
       889.2950311463      -52.7974201000       -3.5759807751    2.4768224002E-05    2.4796555865E-05   -2.8331863193E-08
       899.2950311463      -42.7974201000       -3.1879391448    3.6875754657E-05    3.6882411367E-05   -6.6567096930E-09
       909.2950311463      -32.7974201000       -2.7455914893    6.5823417444E-05    6.5730269509E-05    9.3147934928E-08
       910.7950311463      -31.2974201000       -2.6729329326    7.3905232582E-05    7.3779314548E-05    1.2591803425E-07
       912.2950311463      -29.7974201000       -2.5982432281    8.3966086936E-05    8.3798378490E-05    1.6770844632E-07
       913.7950311463      -28.2974201000       -2.5213420451    9.6700298297E-05    9.6478634481E-05    2.2166381621E-07
       915.2950311463      -26.7974201000       -2.4420202944    1.1323142602E-04    1.1293840511E-04    2.9302090643E-07
       916.7950311463      -25.2974201000       -2.3600341003    1.3667881387E-04    1.3628105472E-04    3.9775915212E-07
       918.2950311463      -23.7974201000       -2.2750953365    1.6953201629E-04    1.6896744286E-04    5.6457343357E-07
       919.2950311463      -22.7974201000       -2.2166618343    2.0008333643E-04    1.9932899397E-04    7.5434246589E-07
       919.5146321463      -22.5778191000       -2.2036223563    2.0810003798E-04    2.0728846324E-04    8.1157474360E-07
       919.7342331463      -22.3582181000       -2.1905053564    2.1669284179E-04    2.1581594928E-04    8.7689251010E-07
       919.7950311463      -22.2974201000       -2.1868597977    2.1918080216E-04    2.1828418067E-04    8.9662149154E-07
       919.9538341463      -22.1386171000       -2.1773091403    2.2591856414E-04    2.2496658829E-04    9.5197584801E-07
       920.1734351463      -21.9190161000       -2.1640324554    2.3584537319E-04    2.3480648591E-04    1.0388872864E-06
       920.3930361463      -21.6994151000       -2.1506740096    2.4654991603E-04    2.4540968339E-04    1.1402326421E-06
       920.6126371463      -21.4798141000       -2.1372319708    2.5811865286E-04    2.5685935490E-04    1.2592979635E-06
       920.8322381463      -21.2602131000       -2.1237047518    2.7065362112E-04    2.6925345848E-04    1.4001626356E-06
       921.0518391463      -21.0406121000       -2.1100908153    2.8426896973E-04    2.8270087059E-04    1.5680991442E-06
       921.2714401463      -20.8210111000       -2.0963886748    2.9910118020E-04    2.9733128369E-04    1.7698965121E-06
       921.4910411463      -20.6014101000       -2.0825962829    3.1530352677E-04    3.1328923359E-04    2.0142931897E-06
       921.7106421463      -20.3818091000       -2.0687118343    3.3305900254E-04    3.3074647069E-04    2.3125318427E-06
       921.9302431463      -20.1622081000       -2.0547336701    3.5258275439E-04    3.4990317209E-04    2.6795822919E-06
       922.1498441463      -19.9426071000       -2.0406597601    3.7413109754E-04    3.7099608949E-04    3.1350080449E-06
       922.3694451463      -19.7230061000       -2.0264880045    3.9800229188E-04    3.9429705961E-04    3.7052322685E-06
       922.5890461463      -19.5034051000       -2.0122165475    4.2456537050E-04    4.2013941244E-04    4.4259580541E-06
       922.8086471463      -19.2838041000       -1.9978432524    4.5425573496E-04    4.4890980270E-04    5.3459322606E-06
       923.0282481463      -19.0642031000       -1.9833655833    4.8761465000E-04    4.8108193035E-04    6.5327196547E-06
       923.2478491463      -18.8446021000       -1.9687814538    5.2530852794E-04    5.1722657001E-04    8.0819579278E-06
       923.4674501463      -18.6250011000       -1.9540886981    5.6816772442E-04    5.5804151145E-04    1.0126212977E-05
       923.6870511463      -18.4054001000       -1.9392844082    6.1722363282E-04    6.0437747708E-04    1.2846155731E-05
       923.9066521463      -18.1857991000       -1.9243664525    6.7376148626E-04    6.5729948200E-04    1.6462004262E-05
       924.1262531463      -17.9661981000       -1.9093317206    7.3936542436E-04    7.1813902099E-04    2.1226403373E-05
       924.3458541463      -17.7465971000       -1.8941778814    8.1614676870E-04    7.8857754121E-04    2.7569227493E-05
       924.5654551463      -17.5269961000       -1.8789014867    9.0711587811E-04    8.7077586164E-04    3.6340016462E-05
       924.7850561463      -17.3073951000       -1.8635000363    1.0162331035E-03    9.6753076504E-04    4.8702338482E-05
       925.0046571463      -17.0877941000       -1.8479702884    1.1485509305E-03    1.0825270063E-03    6.6023924236E-05
       925.2242581463      -16.8681931000       -1.8323089809    1.3108386874E-03    1.2206259043E-03    9.0212783127E-05
       925.4438591463      -16.6485921000       -1.8165125351    1.5136436457E-03    1.3883337190E-03    1.2530992674E-04
       925.6634601463      -16.4289911000       -1.8005775126    1.7731508193E-03    1.5946411240E-03    1.7850969525E-04
       925.8830611463      -16.2093901000       -1.7845002607    2.1125756022E-03    1.8520986725E-03    2.6047692975E-04
       926.1026621463      -15.9897891000       -1.7682767795    2.5649211383E-03    2.1787642764E-03    3.8615686193E-04
       926.3222631463      -15.7701881000       -1.7519031282    3.1748537800E-03    2.6010691694E-03    5.7378461064E-04
       926.5418641463      -15.5505871000       -1.7353749947    3.9922526459E-03    3.1584265505E-03    8.3382609541E-04
       926.7614651463      -15.3309861000       -1.7186878602    5.0450660897E-03    3.9108903283E-03    1.1341757614E-03
       926.9810661463      -15.1113851000       -1.7018371102    6.3096250212E-03    4.9518116956E-03    1.3578133256E-03
       927.2006671463      -14.8917841000       -1.6848178985    7.7267155898E-03    6.4261239434E-03    1.3005916465E-03
       927.4202681463      -14.6721831000       -1.6676249398    9.2208300352E-03    8.5533221446E-03    6.6750789054E-04
       927.6398691463      -14.4525821000       -1.6502529326    1.0790338394E-02    1.1625664673E-02   -8.3532627873E-04
       927.8594701463      -14.2329811000       -1.6326960311    1.2553624147E-02    1.5874694957E-02   -3.3210708104E-03
       928.0790711463      -14.0133801000       -1.6149483372    1.4487497697E-02    2.0972572843E-02   -6.4850751459E-03
       928.2986721463      -13.7937791000       -1.5970033564    1.6045334754E-02    2.5216226812E-02   -9.1708920580E-03
       928.5182731463      -13.5741781000       -1.5788544968    1.6894373419E-02    2.5946933891E-02   -9.0525604719E-03
       928.7378741463      -13.3545771000       -1.5604946448    1.7808525979E-02    2.2663871678E-02   -4.8553456984E-03
       928.9574751463      -13.1349761000       -1.5419159874    1.8727444549E-02    1.7837593411E-02    8.8985113802E-04
       929.1770761463      -12.9153751000       -1.5231107973    1.8696285723E-02    1.3558945972E-02    5.1373397512E-03
       929.3966771463      -12.6957741000       -1.5040706484    1.7044422105E-02    1.0370839523E-02    6.6735825823E-03
       929.6162781463      -12.4761731000       -1.4847862149    1.4078866340E-02    8.1177011877E-03    5.9611651526E-03
       929.8358791463      -12.2565721000       -1.4652479970    1.0985855808E-02    6.5317056824E-03    4.4541501258E-03
       930.0554801463      -12.0369711000       -1.4454457034    8.5282594532E-03    5.3997621040E-03    3.1284973492E-03
       930.2750811463      -11.8173701000       -1.4253684026    6.7682495899E-03    4.5765251664E-03    2.1917244235E-03
       930.4946821463      -11.5977691000       -1.4050043051    5.5294590022E-03    3.9661428398E-03    1.5633161624E-03
       930.7142831463      -11.3781681000       -1.3843404470    4.6447570407E-03    3.5058357640E-03    1.1389212766E-03
       930.9338841463      -11.1585671000       -1.3633635887    3.9981977255E-03    3.1534898952E-03    8.4470783037E-04
       931.1534851463      -10.9389661000       -1.3420588945    3.5160068800E-03    2.8807651748E-03    6.3524170517E-04
       931.3730861463      -10.7193651000       -1.3204104960    3.1508572197E-03    2.6679790154E-03    4.8287820428E-04
       931.5926871463      -10.4997641000       -1.2984010784    2.8715101747E-03    2.5011166343E-03    3.7039354042E-04
       931.8122881463      -10.2801631000       -1.2760122107    2.6567136255E-03    2.3701696304E-03    2.8654399508E-04
       932.0318891463      -10.0605621000       -1.2532233867    2.4911658951E-03    2.2676167544E-03    2.2354914074E-04
       932.2514901563       -9.8409610900       -1.2300124195    2.3637857400E-03    2.1880880187E-03    1.7569772133E-04
       932.4710911563       -9.6213600900       -1.2063549425    2.2660809118E-03    2.1274492016E-03    1.3863171015E-04
       932.6906921563       -9.4017590900       -1.1822241507    2.1911807308E-03    2.0822572037E-03    1.0892352707E-04
       932.9102931563       -9.1821580900       -1.1575904446    2.1342400813E-03    2.0503921678E-03    8.3847913540E-05
       933.1298941563       -8.9625570900       -1.1324210520    2.0907554076E-03    2.0295301307E-03    6.1225276932E-05
       933.3494951563       -8.7429560900       -1.1066792315    2.0577479929E-03    2.0184345267E-03    3.9313466242E-05
       933.5690961563       -8.5233550900       -1.0803243108    2.0322305540E-03    2.0154659208E-03    1.6764633172E-05
       933.7886971563       -8.3037540900       -1.0533101688    2.0125154304E-03    2.0198802294E-03   -7.3647989614E-06
       934.0082981563       -8.0841530900       -1.0255848184    1.9973174168E-03    2.0308902675E-03   -3.3572850661E-05
       934.2278991563       -7.8645520900       -0.9970886662    1.9859050913E-03    2.0477749608E-03   -6.1869869559E-05
       934.4475001563       -7.6449510900       -0.9677538995    1.9779052611E-03    2.0696653453E-03   -9.1760084178E-05
       934.6671011563       -7.4253500900       -0.9375015726    1.9740528265E-03    2.0963048091E-03   -1.2225198260E-04
       934.8867021563       -7.2057490900       -0.9062399465    1.9753056134E-03    2.1271997561E-03   -1.5189414268E-04
       935.1063031563       -6.9861480900       -0.8738607377    1.9831972561E-03    2.1620169159E-03   -1.7881965982E-04
       935.3259041563       -6.7665470900       -0.8402346601    1.9995433141E-03    2.2003494092E-03   -2.0080609508E-04
       935.5455051563       -6.5469460900       -0.8052055839    2.0266813910E-03    2.2420174204E-03   -2.1533602942E-04
       935.7651061563       -6.3273450900       -0.7685815990    2.0669762008E-03    2.2866623677E-03   -2.1968616689E-04
       935.9847071563       -6.1077440900       -0.7301228455    2.1230502347E-03    2.3341084498E-03   -2.1105821518E-04
       936.2043081563       -5.8881430900       -0.6895223838    2.1968405094E-03    2.3846021870E-03   -1.8776167767E-04
       936.4239091563       -5.6685420900       -0.6463767010    2.2894051980E-03    2.4379156184E-03   -1.4851042037E-04
       936.6435101563       -5.4489410900       -0.6001370744    2.4010934741E-03    2.4933698700E-03   -9.2276395893E-05
       936.8631111563       -5.2293400900       -0.5500238206    2.5303329895E-03    2.5508608218E-03   -2.0527832300E-05
       937.0827121563       -5.0097390900       -0.4948615210    2.6724021347E-03    2.6101511239E-03    6.2251010764E-05
       937.3023131563       -4.7901380900       -0.4327234608    2.8192740834E-03    2.6710381119E-03    1.4823597152E-04
       937.5219141563       -4.5705370900       -0.3600156968    2.9608424087E-03    2.7334615484E-03    2.2738086033E-04
       937.7415151563       -4.3509360900       -0.2682778480    3.0871852196E-03    2.7971906839E-03    2.8999453572E-04
       938.0157311563       -4.0767200900        0.0000000000    3.2141831639E-03    2.8784229646E-03    3.3576019930E-04
       938.1807171563       -3.9117340900        0.2080951610    3.2730424678E-03    2.9280556889E-03    3.4498677897E-04
       938.4003181563       -3.6921330900        0.3177135359    3.3333400195E-03    2.9949134038E-03    3.3842661571E-04
       938.6199191563       -3.4725320900        0.3982212899    3.3775682175E-03    3.0624405419E-03    3.1512767559E-04
       938.8395201563       -3.2529310900        0.4649930114    3.4117579187E-03    3.1306761225E-03    2.8108179616E-04
       939.0591211563       -3.0333300900        0.5233132576    3.4417985579E-03    3.1992887569E-03    2.4250980103E-04
       939.2787221563       -2.8137290900        0.5757561090    3.4739045493E-03    3.2682400339E-03    2.0566451539E-04
       939.2950511563       -2.7974000900        0.5794660924    3.4765116923E-03    3.2733469210E-03    2.0316477135E-04
       940.7950511563       -1.2974000900        0.8540980090    4.0878742321E-03    3.7439870364E-03    3.4388719568E-04
       942.2950511593        0.2025999130        1.0598046733    4.7039019176E-03    4.1908627198E-03    5.1303919781E-04
       943.7950511563        1.7025999100        1.2316201590    4.7517649293E-03    4.5934457812E-03    1.5831914813E-04
       945.2950511563        3.2025999100        1.3822411487    4.6792688001E-03    4.9436209161E-03   -2.6435211592E-04
       946.7950511563        4.7025999100        1.5179897793    4.6394404952E-03    5.2424433546E-03   -6.0300285940E-04
       948.2950511563        6.2025999100        1.6425575628    4.6461113578E-03    5.4955874576E-03   -8.4947609989E-04
       949.2950311563        7.2025799100        1.7205982942    4.7496373958E-03    5.6427310040E-03   -8.9309360818E-04
       949.7950511563        7.7025999100        1.7583224780    4.8080507668E-03    5.7105734744E-03   -9.0252270756E-04
       969.2950311463       27.2025799000        2.8652790709    7.2871006345E-03    6.6180074356E-03    6.6909319885E-04
       989.2950311463       47.2025799000        3.6686769936    6.1597221615E-03    6.5428609955E-03   -3.8313883399E-04
      1009.2950311463       67.2025799000        4.3253387217    6.0084285059E-03    6.1738993001E-03   -1.6547079414E-04
      1029.2950311463       87.2025799000        4.8946830118    6.4100979403E-03    5.8492147945E-03    5.6088314583E-04
      1049.2950312463      107.2025800000        5.4043767925    5.3410925499E-03    5.5718719976E-03   -2.3077944773E-04
