# # Once                                                         FEFF 10.0.0 
# # POT  SCF  60  4.0000   0, NO core-hole, AFOLP (folp(0)= 1.150)
# # Abs   Z=29 Rmt= 1.362 Rnm= 1.399 L3 shell
# #   RGRID 0.0100
# # Pot 1 Z=29 Rmt= 1.362 Rnm= 1.399
# # Gam_ch=5.960E-01 H-L exch Vi= 1.000E-04 Vr= 0.000E+00
# # Mu=-7.619E+00eV kf=2.012E+00 Vint=-1.628E+01eV Rs_int= 1.802
# FMS rfms= 8.0000
# # PATH  Rmax=-1.000,  Keep_limit= 0.00, Heap_limit 0.00  Pwcrit= 2.50%
#  S02=1.000  Temp=   0.00  Debye_temp=   0.00  Global_sig2= 0.00000
#  Energy zero shift, vr, vi    0.00000E+00   0.00000E+00
#  Curved wave amplitude ratio filter   4.000%
#     file         sig2 tot  cw amp ratio   deg  nlegs   reff  inp sig2
#     0/   0 paths used
#  xsedge+ 50, used to normalize mu           1.0000E+00
#  -----------------------------------------------------------------------
#  omega    e    k    mu    mu0     chi     @#
       884.1494532383      -59.5365028000       -3.6914322719    9.0700129304E-06    9.3508990490E-06   -2.8088611867E-07
       894.1494532383      -49.5365028000       -3.3169246077    1.2083470000E-05    1.2499888885E-05   -4.1641888460E-07
       904.1494532383      -39.5365028000       -2.8943575261    1.7234069036E-05    1.7914238133E-05   -6.8016909696E-07
       914.1494532383      -29.5365028000       -2.3984624501    2.7692317537E-05    2.9004398265E-05   -1.3120807280E-06
       915.6494532383      -28.0365028000       -2.3149342078    3.0196295733E-05    3.1677903302E-05   -1.4816075691E-06
       917.1494532383      -26.5365028000       -2.2282768671    3.3152704075E-05    3.4839900421E-05   -1.6871963458E-06
       918.6494532383      -25.0365028000       -2.1381102947    3.6776428696E-05    3.8716274516E-05   -1.9398458191E-06
       920.1494532383      -23.5365028000       -2.0439699221    4.1072590223E-05    4.3328625545E-05   -2.2560353225E-06
       921.6494532383      -22.0365028000       -1.9452789073    4.6348634674E-05    4.9007952205E-05   -2.6593175311E-06
       923.1494532383      -20.5365028000       -1.8413060788    5.2981096286E-05    5.6166579441E-05   -3.1854831550E-06
       924.1494532383      -19.5365028000       -1.7685982053    5.8434140601E-05    6.2064923953E-05   -3.6307833518E-06
       924.2494882383      -19.4364678000       -1.7611596928    5.9035878356E-05    6.2716372080E-05   -3.6804937237E-06
       924.3495232383      -19.3364328000       -1.7536896292    5.9649035604E-05    6.3380280461E-05   -3.7312448569E-06
       924.4495582383      -19.2363978000       -1.7461877314    6.0273988955E-05    6.4057051067E-05   -3.7830621120E-06
       924.5495932383      -19.1363628000       -1.7386533424    6.0911048403E-05    6.4747025018E-05   -3.8359766145E-06
       924.6494532383      -19.0365028000       -1.7310995020    6.1559432795E-05    6.5449349775E-05   -3.8899169803E-06
       924.7496632383      -18.9362928000       -1.7234858789    6.2222874625E-05    6.6168075035E-05   -3.9452004100E-06
       924.8496982383      -18.8362578000       -1.7158518079    6.2898322293E-05    6.6899889620E-05   -4.0015673272E-06
       924.9497332383      -18.7362228000       -1.7081836197    6.3587464773E-05    6.7646605478E-05   -4.0591407054E-06
       925.0497682383      -18.6361878000       -1.7004809779    6.4290533377E-05    6.8408485934E-05   -4.1179525569E-06
       925.1498032383      -18.5361528000       -1.6927432236    6.5008089180E-05    6.9186111566E-05   -4.1780223869E-06
       925.2498382383      -18.4361178000       -1.6849698099    6.5740592275E-05    6.9979972304E-05   -4.2393800284E-06
       925.3498732383      -18.3360828000       -1.6771604947    6.6488427873E-05    7.0790471105E-05   -4.3020432321E-06
       925.4499082383      -18.2360478000       -1.6693147105    6.7252182928E-05    7.1618215291E-05   -4.3660323637E-06
       925.5499432383      -18.1360128000       -1.6614317484    6.8032424583E-05    7.2463775025E-05   -4.4313504417E-06
       925.6499782383      -18.0359778000       -1.6535112698    6.8829666117E-05    7.3327666898E-05   -4.4980007809E-06
       925.7500132383      -17.9359428000       -1.6455526037    6.9644531042E-05    7.4210493523E-05   -4.5659624806E-06
       925.8500482383      -17.8359078000       -1.6375552581    7.0477695285E-05    7.5112879637E-05   -4.6351843522E-06
       925.9500832383      -17.7358728000       -1.6295187943    7.1329895978E-05    7.6035481858E-05   -4.7055858807E-06
       926.0501182383      -17.6358378000       -1.6214423024    7.2202076800E-05    7.6979055233E-05   -4.7769784322E-06
       926.1501532383      -17.5358028000       -1.6133255111    7.3095210240E-05    7.7944289484E-05   -4.8490792433E-06
       926.2501882383      -17.4357678000       -1.6051676765    7.4010534118E-05    7.8931918683E-05   -4.9213845649E-06
       926.3502232383      -17.3357328000       -1.5969681029    7.4949611959E-05    7.9942779555E-05   -4.9931675963E-06
       926.4502582383      -17.2356978000       -1.5887262780    7.5914059737E-05    8.0977647533E-05   -5.0635877961E-06
       926.5502932383      -17.1356628000       -1.5804415409    7.6904593981E-05    8.2037412577E-05   -5.1328185966E-06
       926.6503282383      -17.0356278000       -1.5721129423    7.7917933489E-05    8.3123081273E-05   -5.2051477835E-06
       926.7503632383      -16.9355928000       -1.5637401216    7.8946917116E-05    8.4235687190E-05   -5.2887700734E-06
       926.8503982383      -16.8355578000       -1.5553222280    7.9991981356E-05    8.5376292776E-05   -5.3843114204E-06
       926.9504332383      -16.7355228000       -1.5468585254    8.1062827278E-05    8.6546083420E-05   -5.4832561427E-06
       927.0504682383      -16.6354878000       -1.5383481195    8.2166323094E-05    8.7746370067E-05   -5.5800469725E-06
       927.1505032383      -16.5354528000       -1.5297905786    8.3305785051E-05    8.8978723586E-05   -5.6729385345E-06
       927.2505382383      -16.4354178000       -1.5211848274    8.4482664674E-05    9.0244894693E-05   -5.7622300193E-06
       927.3505732383      -16.3353828000       -1.5125300431    8.5700776333E-05    9.1546496533E-05   -5.8457201994E-06
       927.4506082383      -16.2353478000       -1.5038255204    8.6954494021E-05    9.2884953899E-05   -5.9304598777E-06
       927.5506432383      -16.1353128000       -1.4950703197    8.8240798187E-05    9.4260941989E-05   -6.0201438023E-06
       927.6506782383      -16.0352778000       -1.4862634735    8.9553888122E-05    9.5674857677E-05   -6.1209695547E-06
       927.7507132383      -15.9352428000       -1.4774042025    9.0896011548E-05    9.7127765734E-05   -6.2317541862E-06
       927.8507482383      -15.8352078000       -1.4684914853    9.2272925690E-05    9.8621171248E-05   -6.3482455579E-06
       927.9507832383      -15.7351728000       -1.4595242698    9.3690074482E-05    1.0015693240E-04   -6.4668579217E-06
       928.0508182383      -15.6351378000       -1.4505016188    9.5152033629E-05    1.0173721774E-04   -6.5851841067E-06
       928.1508532383      -15.5351028000       -1.4414225650    9.6662495916E-05    1.0336437052E-04   -6.7018745995E-06
       928.2508882383      -15.4350678000       -1.4322859616    9.8224865287E-05    1.0504072803E-04   -6.8158627471E-06
       928.3509232383      -15.3350328000       -1.4230906253    9.9842448700E-05    1.0676893715E-04   -6.9264884536E-06
       928.4509582383      -15.2349978000       -1.4138355607    1.0151855896E-04    1.0855161128E-04   -7.0330523145E-06
       928.5509932383      -15.1349628000       -1.4045195112    1.0325704135E-04    1.1039182870E-04   -7.1347873463E-06
       928.6510282383      -15.0349278000       -1.3951411790    1.0506183027E-04    1.1229263958E-04   -7.2308093059E-06
       928.7510632383      -14.9348928000       -1.3856993762    1.0693714670E-04    1.1425742399E-04   -7.3202772874E-06
       928.8510982383      -14.8348578000       -1.3761928739    1.0888770264E-04    1.1628985265E-04   -7.4021500100E-06
       928.9511332383      -14.7348228000       -1.3666202438    1.1091854524E-04    1.1839388771E-04   -7.4753424738E-06
       929.0511682383      -14.6347878000       -1.3569800083    1.1303509502E-04    1.2057369942E-04   -7.5386043969E-06
       929.1512032383      -14.5347528000       -1.3472708739    1.1524351273E-04    1.2283400774E-04   -7.5904950097E-06
       929.2512382383      -14.4347178000       -1.3374912607    1.1755077828E-04    1.2517984990E-04   -7.6290716178E-06
       929.3512732383      -14.3346828000       -1.3276396112    1.1996531055E-04    1.2761682170E-04   -7.6515111505E-06
       929.4513082383      -14.2346478000       -1.3177141886    1.2249700188E-04    1.3015093191E-04   -7.6539300236E-06
       929.5513432383      -14.1346128000       -1.3077135165    1.2515852973E-04    1.3278904471E-04   -7.6305149802E-06
       929.6513782383      -14.0345778000       -1.2976358551    1.2796548536E-04    1.3553852128E-04   -7.5730359166E-06
       929.7514132383      -13.9345428000       -1.2874791899    1.3093787393E-04    1.3840775159E-04   -7.4698776602E-06
       929.8514482383      -13.8345078000       -1.2772418861    1.3410120193E-04    1.4140593077E-04   -7.3047288462E-06
       929.9514832383      -13.7344728000       -1.2669217789    1.3748858885E-04    1.4454354156E-04   -7.0549527105E-06
       930.0515182383      -13.6344378000       -1.2565168705    1.4114248096E-04    1.4783204037E-04   -6.6895594146E-06
       930.1515532383      -13.5344028000       -1.2460251218    1.4511994423E-04    1.5128518440E-04   -6.1652401681E-06
       930.2515882383      -13.4343678000       -1.2354443205    1.4949536486E-04    1.5491856422E-04   -5.4231993601E-06
       930.3516232383      -13.3343328000       -1.2247721151    1.5436225509E-04    1.5874797174E-04   -4.3857166545E-06
       930.4516582383      -13.2342978000       -1.2140059635    1.5983914727E-04    1.6279527779E-04   -2.9561305167E-06
       930.5516932383      -13.1342628000       -1.2031436534    1.6604222272E-04    1.6708267041E-04   -1.0404476822E-06
       930.6517282383      -13.0342278000       -1.1921823331    1.7303090817E-04    1.7163905520E-04    1.3918529727E-06
       930.7517632383      -12.9341928000       -1.1811192012    1.8066915021E-04    1.7649610239E-04    4.1730478208E-06
       930.8517982383      -12.8341578000       -1.1699515057    1.8849746072E-04    1.8169185657E-04    6.8056041472E-06
       930.9518332383      -12.7341228000       -1.1586762693    1.9593188440E-04    1.8727487816E-04    8.6570062447E-06
       931.0518682383      -12.6340878000       -1.1472900429    2.0305788237E-04    1.9330001462E-04    9.7578677474E-06
       931.1519032383      -12.5340528000       -1.1357898634    2.1099598886E-04    1.9983765855E-04    1.1158330310E-05
       931.2519382383      -12.4340178000       -1.1241719022    2.2088860109E-04    2.0697476333E-04    1.3913837759E-05
       931.3519732383      -12.3339828000       -1.1124327083    2.3296886327E-04    2.1481935693E-04    1.8149506339E-05
       931.4520082383      -12.2339478000       -1.1005682573    2.4618769856E-04    2.2350826159E-04    2.2679436969E-05
       931.5520432383      -12.1339128000       -1.0885745024    2.5829271755E-04    2.3321827362E-04    2.5074443933E-05
       931.6520782383      -12.0338778000       -1.0764471216    2.6779573716E-04    2.4418019803E-04    2.3615539124E-05
       931.7521132383      -11.9338428000       -1.0641815966    2.7627373728E-04    2.5669289118E-04    1.9580846103E-05
       931.8521482383      -11.8338078000       -1.0517729930    2.8615588971E-04    2.7115540682E-04    1.5000482895E-05
       931.9521832383      -11.7337728000       -1.0392162882    2.9758774066E-04    2.8809827769E-04    9.4894629719E-06
       932.0522182383      -11.6337378000       -1.0265059435    3.0963469180E-04    3.0822398661E-04    1.4107051959E-06
       932.1522532383      -11.5337028000       -1.0136362318    3.2243864956E-04    3.3245955036E-04   -1.0020900802E-05
       932.2522882383      -11.4336678000       -1.0006010038    3.3604838631E-04    3.6195309006E-04   -2.5904703747E-05
       932.3523232383      -11.3336328000       -0.9873937042    3.5090751959E-04    3.9802803384E-04   -4.7120514249E-05
       932.4523582383      -11.2335978000       -0.9740073334    3.6875292872E-04    4.4188063870E-04   -7.3127709986E-05
       932.5523932383      -11.1335628000       -0.9604344037    3.9139617619E-04    4.9388167754E-04   -1.0248550134E-04
       932.6524282383      -11.0335278000       -0.9466670033    4.1798466302E-04    5.5245506561E-04   -1.3447040259E-04
       932.7524632383      -10.9334928000       -0.9326962352    4.4340025900E-04    6.1290139099E-04   -1.6950113199E-04
       932.8524982383      -10.8334578000       -0.9185130513    4.6027104264E-04    6.6662278564E-04   -2.0635174300E-04
       932.9525332383      -10.7334228000       -0.9041074256    4.6386263469E-04    7.0236069606E-04   -2.3849806137E-04
       933.0525682383      -10.6333878000       -0.8894684904    4.5846013438E-04    7.1184884112E-04   -2.5338870674E-04
       933.1526032383      -10.5333528000       -0.8745846215    4.5777115420E-04    6.9668136876E-04   -2.3891021456E-04
       933.2526382383      -10.4333178000       -0.8594429390    4.7234392920E-04    6.6732443565E-04   -1.9498050646E-04
       933.3526732383      -10.3332828000       -0.8440297252    4.9818918358E-04    6.3539370290E-04   -1.3720451932E-04
       933.4527082383      -10.2332478000       -0.8283297262    5.2503908037E-04    6.0830364369E-04   -8.3264563318E-05
       933.5527432383      -10.1332128000       -0.8123263796    5.4988823358E-04    5.8904173137E-04   -3.9153497792E-05
       933.6527782383      -10.0331778000       -0.7960013559    5.7415360935E-04    5.7804941081E-04   -3.8958014639E-06
       933.7528132483       -9.9331427900       -0.7793343722    5.9875533370E-04    5.7471113452E-04    2.4044199175E-05
       933.8528482483       -9.8331077900       -0.7623031387    6.2574443151E-04    5.7818814901E-04    4.7556282503E-05
       933.9528832483       -9.7330727900       -0.7448825994    6.5690013162E-04    5.8777860893E-04    6.9121522687E-05
       934.0529182483       -9.6330377900       -0.7270447706    6.8856936120E-04    6.0300395391E-04    8.5565407289E-05
       934.1529532483       -9.5330027900       -0.7087581464    7.1224737183E-04    6.2363432819E-04    8.8613043637E-05
       934.2529882483       -9.4329677900       -0.6899870060    7.2346119234E-04    6.4969260336E-04    7.3768588982E-05
       934.3530232483       -9.3329327900       -0.6706907484    7.2712159006E-04    6.8142988694E-04    4.5691703125E-05
       934.4530582483       -9.2328977900       -0.6508225655    7.3439416218E-04    7.1934587581E-04    1.5048286366E-05
       934.5530932483       -9.1328627900       -0.6303284833    7.5312206732E-04    7.6421406289E-04   -1.1091995567E-05
       934.6531282483       -9.0328277900       -0.6091452879    7.8525039117E-04    8.1713576430E-04   -3.1885373128E-05
       934.7531632483       -8.9327927900       -0.5871984049    8.3072677961E-04    8.7962662885E-04   -4.8899849242E-05
       934.8531982483       -8.8327577900       -0.5643987524    8.8995149034E-04    9.5375292027E-04   -6.3801429932E-05
       934.9532332483       -8.7327227900       -0.5406384529    9.6445057069E-04    1.0423429977E-03   -7.7892427057E-05
       935.0532682483       -8.6326877900       -0.5157847630    1.0571063741E-03    1.1493076321E-03   -9.2201257967E-05
       935.1533032483       -8.5326527900       -0.4896712502    1.1725079294E-03    1.2801570777E-03   -1.0764914831E-04
       935.2533382483       -8.4326177900       -0.4620842907    1.3175959602E-03    1.4428066709E-03   -1.2521071067E-04
       935.3533732483       -8.3325827900       -0.4327422751    1.5028173681E-03    1.6489034765E-03   -1.4608610835E-04
       935.4534082483       -8.2325477900       -0.4012603249    1.7440546965E-03    1.9159710820E-03   -1.7191638545E-04
       935.5534432483       -8.1325127900       -0.3670883363    2.0656837398E-03    2.2707774273E-03   -2.0509368755E-04
       935.6534782483       -8.0324777900       -0.3293900803    2.5047457799E-03    2.7539112735E-03   -2.4916549354E-04
       935.7535132483       -7.9324427900       -0.2867783290    3.1139854036E-03    3.4231111705E-03   -3.0912576691E-04
       935.8535482483       -7.8324077900       -0.2366131898    3.9542714021E-03    4.3449523352E-03   -3.9068093303E-04
       935.9535832483       -7.7323727900       -0.1724232677    5.0561789591E-03    5.5527044566E-03   -4.9652549753E-04
       936.0668532483       -7.6191027900        0.0000000000    6.5220540927E-03    7.1579210567E-03   -6.3586696401E-04
       936.1536532483       -7.5323027900        0.1509378904    7.6604576416E-03    8.3909553678E-03   -7.3049772619E-04
       936.2536882483       -7.4322677900        0.2214458439    8.7636169942E-03    9.5811369215E-03   -8.1751992729E-04
       936.3537232483       -7.3322327900        0.2743980444    9.5489418624E-03    1.0426059727E-02   -8.7711786492E-04
       936.4537582483       -7.2321977900        0.3186695705    1.0052326203E-02    1.0964450729E-02   -9.1212452640E-04
       936.5537932483       -7.1321627900        0.3575000748    1.0346611797E-02    1.1277443341E-02   -9.3083154375E-04
       936.6538282483       -7.0321277900        0.3925077475    1.0497605472E-02    1.1439259716E-02   -9.4165424390E-04
       936.7538632483       -6.9320927900        0.4246390627    1.0549889928E-02    1.1501312195E-02   -9.5142226714E-04
       936.8538982483       -6.8320577900        0.4545045088    1.0532485816E-02    1.1497867747E-02   -9.6538193093E-04
       936.9539332483       -6.7320227900        0.4825250151    1.0463389632E-02    1.1450815349E-02   -9.8742571701E-04
       937.0539682483       -6.6319877900        0.5090052835    1.0354779180E-02    1.1375033224E-02   -1.0202540441E-03
       937.1540032483       -6.5319527900        0.5341745222    1.0214719111E-02    1.1280215720E-02   -1.0654966090E-03
       937.2540382483       -6.4319177900        0.5582100040    1.0048844969E-02    1.1172636601E-02   -1.1237916317E-03
       937.3540732483       -6.3318827900        0.5812525070    9.8623078643E-03    1.1057253300E-02   -1.1949454353E-03
       937.4541082483       -6.2318477900        0.6034156213    9.6595018031E-03    1.0937410081E-02   -1.2779082782E-03
       937.5541432483       -6.1318127900        0.6247931287    9.4451340852E-03    1.0816299374E-02   -1.3711652888E-03
       937.6541782483       -6.0317777900        0.6454629878    9.2215036729E-03    1.0694268279E-02   -1.4727646061E-03
       937.7542132483       -5.9317427900        0.6654911597    8.9926692763E-03    1.0573034480E-02   -1.5803652041E-03
       937.8542482483       -5.8317077900        0.6849339569    8.7613213037E-03    1.0452833480E-02   -1.6915121759E-03
       937.9542832483       -5.7316727900        0.7038398731    8.5315653125E-03    1.0335528792E-02   -1.8039634797E-03
       938.0543182483       -5.6316377900        0.7222510335    8.3056015460E-03    1.0220687818E-02   -1.9150862721E-03
       938.1543532483       -5.5316027900        0.7402044292    8.0855999468E-03    1.0108643248E-02   -2.0230433013E-03
       938.2543882483       -5.4315677900        0.7577325289    7.8739206227E-03    9.9995372305E-03   -2.1256166078E-03
       938.3544232483       -5.3315327900        0.7748642293    7.6724280514E-03    9.8933558871E-03   -2.2209278357E-03
       938.4544582483       -5.2314977900        0.7916252663    7.4832983494E-03    9.7909571256E-03   -2.3076587762E-03
       938.5544932483       -5.1314627900        0.8080387720    7.3065796246E-03    9.6910896180E-03   -2.3845099934E-03
       938.6545282483       -5.0314277900        0.8241253821    7.1443317783E-03    9.5944131087E-03   -2.4500813304E-03
