# # Once                                                         FEFF 10.0.0 
# # POT  SCF  60  4.0000   0, NO core-hole, AFOLP (folp(0)= 1.150)
# # Abs   Z=29 Rmt= 1.362 Rnm= 1.399 L3 shell
# #   RGRID 0.0100
# # Pot 1 Z=29 Rmt= 1.362 Rnm= 1.399
# # Gam_ch=5.960E-01 H-L exch Vi= 1.000E-04 Vr= 1.468E+00
# # Mu=-7.619E+00eV kf=2.012E+00 Vint=-1.628E+01eV Rs_int= 1.802
# FMS rfms= 8.0000
# # PATH  Rmax=-1.000,  Keep_limit= 0.00, Heap_limit 0.00  Pwcrit= 2.50%
#  S02=1.000  Temp=   0.00  Debye_temp=   0.00  Global_sig2= 0.00000
#  Energy zero shift, vr, vi    0.00000E+00   0.00000E+00
#  Curved wave amplitude ratio filter   4.000%
#     file         sig2 tot  cw amp ratio   deg  nlegs   reff  inp sig2
#     0/   0 paths used
#  xsedge+ 50, used to normalize mu           1.0000E+00
#  -----------------------------------------------------------------------
#  omega    e    k    mu    mu0     chi     @#
       884.1494241229      -59.5365428000       -3.6388582223    1.0386944517E-05    1.0619731762E-05   -2.3278724516E-07
       894.1494241229      -49.5365428000       -3.2583133363    1.4120628959E-05    1.4461850681E-05   -3.4122172253E-07
       904.1494241229      -39.5365428000       -2.8269991397    2.0796175821E-05    2.1342577481E-05   -5.4640165938E-07
       914.1494241229      -29.5365428000       -2.3167305294    3.5450262703E-05    3.6461323028E-05   -1.0110603253E-06
       915.6494241229      -28.0365428000       -2.2301430855    3.9192757914E-05    4.0322611784E-05   -1.1298538699E-06
       917.1494241229      -26.5365428000       -2.1400550442    4.3709940677E-05    4.4980693758E-05   -1.2707530807E-06
       918.6494241229      -25.0365428000       -2.0460040510    4.9339146716E-05    5.0778289218E-05   -1.4391425019E-06
       920.1494241229      -23.5365428000       -1.9474163429    5.6272092471E-05    5.7914854500E-05   -1.6427620291E-06
       921.6494241229      -22.0365428000       -1.8435639494    6.5112204785E-05    6.7003166242E-05   -1.8909614570E-06
       923.1494241229      -20.5365428000       -1.7335010445    7.6728403526E-05    7.8923611268E-05   -2.1952077419E-06
       924.1494241229      -19.5365428000       -1.6560668487    8.6696693870E-05    8.9131548141E-05   -2.4348542706E-06
       924.2494591229      -19.4365078000       -1.6481205879    8.7819807953E-05    9.0280363146E-05   -2.4605551928E-06
       924.3494941229      -19.3364728000       -1.6401357639    8.8968921471E-05    9.1455492206E-05   -2.4865707351E-06
       924.4495291229      -19.2364378000       -1.6321118761    9.0144960913E-05    9.2657857290E-05   -2.5128963768E-06
       924.5495641229      -19.1364028000       -1.6240484764    9.1348819946E-05    9.3888352626E-05   -2.5395326799E-06
       924.6494241229      -19.0365428000       -1.6159589356    9.2579187502E-05    9.5145611445E-05   -2.5664239426E-06
       924.7496341229      -18.9363328000       -1.6078000988    9.3843777437E-05    9.6437485956E-05   -2.5937085191E-06
       924.8496691229      -18.8362978000       -1.5996141520    9.5136868581E-05    9.7758105231E-05   -2.6212366498E-06
       924.9497041229      -18.7362628000       -1.5913859642    9.6461956285E-05    9.9110999306E-05   -2.6490430209E-06
       925.0497391229      -18.6362278000       -1.5831150786    9.7820004334E-05    1.0049712278E-04   -2.6771184457E-06
       925.1497741229      -18.5361928000       -1.5748006870    9.9212338189E-05    1.0191778229E-04   -2.7054440980E-06
       925.2498091229      -18.4361578000       -1.5664423008    1.0064022528E-04    1.0337423068E-04   -2.7340054067E-06
       925.3498441229      -18.3361228000       -1.5580389384    1.0210490325E-04    1.0486767307E-04   -2.7627698211E-06
       925.4498791229      -18.2360878000       -1.5495900743    1.0360785024E-04    1.0639956049E-04   -2.7917102523E-06
       925.5499141229      -18.1360528000       -1.5410947529    1.0515057423E-04    1.0797135110E-04   -2.8207768712E-06
       925.6499491229      -18.0360178000       -1.5325525489    1.0673450466E-04    1.0958442284E-04   -2.8499181755E-06
       925.7499841229      -17.9359828000       -1.5239623247    1.0836145740E-04    1.1124051075E-04   -2.8790533533E-06
       925.8500191229      -17.8359478000       -1.5153234743    1.1003320699E-04    1.1294127824E-04   -2.9080712536E-06
       925.9500541229      -17.7359128000       -1.5066350201    1.1175151614E-04    1.1468833833E-04   -2.9368221895E-06
       926.0500891229      -17.6358778000       -1.4978962409    1.1351859787E-04    1.1648364985E-04   -2.9650519777E-06
       926.1501241229      -17.5358428000       -1.4891061794    1.1533674626E-04    1.1832914915E-04   -2.9924028868E-06
       926.2501591229      -17.4358078000       -1.4802639218    1.1720856788E-04    1.2022686014E-04   -3.0182922646E-06
       926.3501941229      -17.3357728000       -1.4713684549    1.1913696932E-04    1.2217888310E-04   -3.0419137760E-06
       926.4502291229      -17.2357378000       -1.4624188805    1.2112528057E-04    1.2418761039E-04   -3.0623298244E-06
       926.5502641229      -17.1357028000       -1.4534142723    1.2317581712E-04    1.2625545081E-04   -3.0796336843E-06
       926.6502991229      -17.0356678000       -1.4443534536    1.2528684269E-04    1.2838488049E-04   -3.0980377975E-06
       926.7503341229      -16.9356328000       -1.4352355822    1.2745315759E-04    1.3057872233E-04   -3.1255647411E-06
       926.8503691229      -16.8355978000       -1.4260592654    1.2967718071E-04    1.3283985821E-04   -3.1626774987E-06
       926.9504041229      -16.7355628000       -1.4168235929    1.3197053033E-04    1.3517141372E-04   -3.2008833894E-06
       927.0504391229      -16.6355278000       -1.4075272449    1.3434238833E-04    1.3757673410E-04   -3.2343457680E-06
       927.1504741229      -16.5354928000       -1.3981691636    1.3679800953E-04    1.4005957153E-04   -3.2615620053E-06
       927.2505091229      -16.4354578000       -1.3887480242    1.3934173150E-04    1.4262394051E-04   -3.2822090109E-06
       927.3505441229      -16.3354228000       -1.3792624575    1.4198001694E-04    1.4527414063E-04   -3.2941236914E-06
       927.4505791229      -16.2353878000       -1.3697112027    1.4470990590E-04    1.4801401499E-04   -3.3041090892E-06
       927.5506141229      -16.1353528000       -1.3600929540    1.4753157816E-04    1.5084709555E-04   -3.3155173916E-06
       927.6506491229      -16.0353178000       -1.3504062012    1.5044182313E-04    1.5377681275E-04   -3.3349896190E-06
       927.7506841229      -15.9352828000       -1.3406494595    1.5344683013E-04    1.5680733281E-04   -3.3605026763E-06
       927.8507191229      -15.8352478000       -1.3308211094    1.5655591963E-04    1.5994373580E-04   -3.3878161713E-06
       927.9507541229      -15.7352128000       -1.3209197137    1.5977840619E-04    1.6319148882E-04   -3.4130826253E-06
       928.0507891229      -15.6351778000       -1.3109434955    1.6312314059E-04    1.6655676315E-04   -3.4336225640E-06
       928.1508241229      -15.5351428000       -1.3008908152    1.6659806583E-04    1.7004587061E-04   -3.4478047775E-06
       928.2508591229      -15.4351078000       -1.2907597215    1.7021163531E-04    1.7366590417E-04   -3.4542688586E-06
       928.3508941229      -15.3350728000       -1.2805486441    1.7397226988E-04    1.7742429404E-04   -3.4520241552E-06
       928.4509291229      -15.2350378000       -1.2702554028    1.7788898801E-04    1.8132895547E-04   -3.4399674680E-06
       928.5509641229      -15.1350028000       -1.2598780682    1.8197143988E-04    1.8538836895E-04   -3.4169290697E-06
       928.6509991229      -15.0349678000       -1.2494145875    1.8623014350E-04    1.8961186996E-04   -3.3817264535E-06
       928.7510341229      -14.9349328000       -1.2388626921    1.9067646919E-04    1.9400940674E-04   -3.3329375492E-06
       928.8510691229      -14.8348978000       -1.2282201465    1.9532251927E-04    1.9859157745E-04   -3.2690581750E-06
       928.9511041229      -14.7348628000       -1.2174845297    2.0018153025E-04    2.0336998516E-04   -3.1884549072E-06
       929.0511391229      -14.6348278000       -1.2066535341    2.0526794942E-04    2.0835725880E-04   -3.0893093839E-06
       929.1511741229      -14.5347928000       -1.1957243007    2.1059753882E-04    2.1356704535E-04   -2.9695065320E-06
       929.2512091229      -14.4347578000       -1.1846943802    2.1618782175E-04    2.1901416229E-04   -2.8263405403E-06
       929.3512441229      -14.3347228000       -1.1735607070    2.2205847600E-04    2.2471476041E-04   -2.6562844127E-06
       929.4512791229      -14.2346878000       -1.1623203910    2.2823207450E-04    2.3068662049E-04   -2.4545459900E-06
       929.5513141229      -14.1346528000       -1.1509702154    2.3473479637E-04    2.3694915328E-04   -2.2143569077E-06
       929.6513491229      -14.0346178000       -1.1395071310    2.4159704200E-04    2.4352355440E-04   -1.9265124051E-06
       929.7513841229      -13.9345828000       -1.1279275065    2.4885521786E-04    2.5043334875E-04   -1.5781308887E-06
       929.8514191229      -13.8345478000       -1.1162278581    2.5655262007E-04    2.5770432826E-04   -1.1517081823E-06
       929.9514541229      -13.7345128000       -1.1044041786    2.6474183480E-04    2.6536513160E-04   -6.2329679381E-07
       930.0514891229      -13.6344778000       -1.0924525381    2.7348762971E-04    2.7344766267E-04    3.9967043564E-08
       930.1515241229      -13.5344428000       -1.0803686900    2.8287026284E-04    2.8198727978E-04    8.8298306560E-07
       930.2515591229      -13.4344078000       -1.0681481972    2.9298999559E-04    2.9102344713E-04    1.9665484555E-06
       930.3515941229      -13.3343728000       -1.0557861131    3.0397198085E-04    3.0060145918E-04    3.3705216644E-06
       930.4516291229      -13.2343378000       -1.0432777616    3.1596357527E-04    3.1076995455E-04    5.1936207130E-06
       930.5516641229      -13.1343028000       -1.0306175073    3.2912155622E-04    3.2158758708E-04    7.5339691363E-06
       930.6516991229      -13.0342678000       -1.0177998384    3.4354158570E-04    3.3311761869E-04    1.0423967004E-05
       930.7517341229      -12.9342328000       -1.0048185722    3.5913505871E-04    3.4543553933E-04    1.3699519385E-05
       930.8517691229      -12.8341978000       -0.9916674986    3.7549314257E-04    3.5862534767E-04    1.6867794893E-05
       930.9518041229      -12.7341628000       -0.9783395524    3.9208918713E-04    3.7278780093E-04    1.9301386201E-05
       931.0518391229      -12.6341278000       -0.9648275691    4.0907193972E-04    3.8803677229E-04    2.1035167430E-05
       931.1518741229      -12.5340928000       -0.9511237614    4.2763399798E-04    4.0450955276E-04    2.3124445222E-05
       931.2519091229      -12.4340578000       -0.9372194875    4.4900094036E-04    4.2236863392E-04    2.6632306432E-05
       931.3519441229      -12.3340228000       -0.9231058044    4.7349987636E-04    4.4180740313E-04    3.1692473226E-05
       931.4519791229      -12.2339878000       -0.9087729847    5.0019387858E-04    4.6306216084E-04    3.7131717743E-05
       931.5520141229      -12.1339528000       -0.8942104317    5.2694560325E-04    4.8642186004E-04    4.0523743209E-05
       931.6520491229      -12.0339178000       -0.8794067326    5.5241564757E-04    5.1224485232E-04    4.0170795244E-05
       931.7520841229      -11.9338828000       -0.8643496203    5.7834197671E-04    5.4098305130E-04    3.7358925409E-05
       931.8521191229      -11.8338478000       -0.8490254871    6.0734705401E-04    5.7320638452E-04    3.4140669489E-05
       931.9521541229      -11.7338128000       -0.8334196038    6.3979850948E-04    6.0964893008E-04    3.0149579398E-05
       932.0521891229      -11.6337778000       -0.8175159006    6.7502317846E-04    6.5124764076E-04    2.3775537708E-05
       932.1522241229      -11.5337428000       -0.8012965781    7.1347786621E-04    6.9921483082E-04    1.4263035386E-05
       932.2522591229      -11.4337078000       -0.7847421345    7.5556883925E-04    7.5501871433E-04    5.5012491967E-07
       932.3522941229      -11.3336728000       -0.7678308251    8.0220225927E-04    8.2040129088E-04   -1.8199031615E-05
       932.4523291229      -11.2336378000       -0.7505385274    8.5561005250E-04    8.9700234138E-04   -4.1392288877E-05
       932.5523641229      -11.1336028000       -0.7328384174    9.1827453632E-04    9.8579039957E-04   -6.7515863246E-05
       932.6523991229      -11.0335678000       -0.7146999728    9.9011480078E-04    1.0858750790E-03   -9.5760278171E-05
       932.7524341229      -10.9335328000       -0.6960891198    1.0669999384E-03    1.1934360024E-03   -1.2643606404E-04
       932.8524691229      -10.8334978000       -0.6769668192    1.1427560766E-03    1.3009486607E-03   -1.5819258418E-04
       932.9525041229      -10.7334628000       -0.6572884141    1.2141752542E-03    1.3984941321E-03   -1.8431887790E-04
       933.0525391229      -10.6334278000       -0.6370024104    1.2874803679E-03    1.4795226474E-03   -1.9204227949E-04
       933.1525741229      -10.5333928000       -0.6160487015    1.3788681428E-03    1.5478046354E-03   -1.6893649261E-04
       933.2526091229      -10.4333578000       -0.5943567848    1.5021627658E-03    1.6166671417E-03   -1.1450437594E-04
       933.3526441229      -10.3333228000       -0.5718426118    1.6577382104E-03    1.7014936831E-03   -4.3755472624E-05
       933.4526791229      -10.2332878000       -0.5484049455    1.8412305958E-03    1.8147842934E-03    2.6446302485E-05
       933.5527141229      -10.1332528000       -0.5239198118    2.0577883204E-03    1.9665232065E-03    9.1265113956E-05
       933.6527491229      -10.0332178000       -0.4982328580    2.3203199127E-03    2.1669226147E-03    1.5339729798E-04
       933.7527841329       -9.9331827900       -0.4711474707    2.6463651864E-03    2.4294200087E-03    2.1694517773E-04
       933.8528191329       -9.8331477900       -0.4424069517    3.0624995541E-03    2.7737994085E-03    2.8870014559E-04
       933.9528541329       -9.7331127900       -0.4116647858    3.6074032891E-03    3.2303999911E-03    3.7700329805E-04
       934.0528891329       -9.6330777900       -0.3784334563    4.3332287522E-03    3.8462556919E-03    4.8697306034E-04
       934.1529241329       -9.5330427900       -0.3419881077    5.3143666982E-03    4.6938158199E-03    6.2055087831E-04
       934.2529591329       -9.4330077900       -0.3011641813    6.6631130125E-03    5.8789649856E-03    7.8414802691E-04
       934.3529941329       -9.3329727900       -0.2538579047    8.5271296960E-03    7.5326155681E-03    9.9451412793E-04
       934.4530291329       -9.2329377900       -0.1954170517    1.1008926871E-02    9.7448227137E-03    1.2641041568E-03
       934.5985241329       -9.0874427900        0.0000000000    1.5328611340E-02    1.3667231900E-02    1.6613794406E-03
       934.6530991329       -9.0328677900        0.1196837816    1.6863057353E-02    1.5112264986E-02    1.7507923667E-03
       934.7531341329       -8.9328327900        0.2014453299    1.9089189801E-02    1.7324336547E-02    1.7648532542E-03
       934.8531691329       -8.8327977900        0.2585270572    2.0363786561E-02    1.8775094066E-02    1.5886924944E-03
       934.9532041329       -8.7327627900        0.3051102221    2.0799443764E-02    1.9516255485E-02    1.2831882794E-03
       935.0532391329       -8.6327277900        0.3454682078    2.0665434668E-02    1.9742296683E-02    9.2313798449E-04
       935.1532741329       -8.5326927900        0.3815813120    2.0202327862E-02    1.9641204457E-02    5.6112340428E-04
       935.2533091329       -8.4326577900        0.4145603848    1.9571179812E-02    1.9344484716E-02    2.2669509646E-04
       935.3533441329       -8.3326227900        0.4451026035    1.8870754635E-02    1.8937714053E-02   -6.6959418360E-05
       935.4533791329       -8.2325877900        0.4736795781    1.8157962898E-02    1.8473798529E-02   -3.1583563186E-04
       935.5534141329       -8.1325527900        0.5006279368    1.7463442525E-02    1.7984692239E-02   -5.2124971373E-04
       935.6534491329       -8.0325177900        0.5261980609    1.6805057549E-02    1.7491522904E-02   -6.8646535525E-04
       935.7534841329       -7.9324827900        0.5505818629    1.6189537484E-02    1.7004399904E-02   -8.1486241993E-04
       935.8535191329       -7.8324477900        0.5739306834    1.5620044519E-02    1.6531131547E-02   -9.1108702725E-04
       935.9535541329       -7.7324127900        0.5963659876    1.5096715775E-02    1.6075641005E-02   -9.7892523058E-04
       936.0535891329       -7.6323777900        0.6179874050    1.4616747854E-02    1.5639581646E-02   -1.0228337917E-03
       936.1536241329       -7.5323427900        0.6388774696    1.4217930824E-02    1.5254468874E-02   -1.0365380495E-03
       936.2536591329       -7.4323077900        0.6591057853    1.3856813658E-02    1.4893381587E-02   -1.0365679296E-03
       936.3536941329       -7.3322727900        0.6787315212    1.3518690949E-02    1.4547580258E-02   -1.0288893094E-03
       936.4537291329       -7.2322377900        0.6978054645    1.3201275307E-02    1.4217904042E-02   -1.0166287351E-03
       936.5537641329       -7.1322027900        0.7163717294    1.2899654088E-02    1.3903061036E-02   -1.0034069485E-03
       936.6537991329       -7.0321677900        0.7344688532    1.2611312654E-02    1.3603857442E-02   -9.9254478872E-04
       936.7538341329       -6.9321327900        0.7521306654    1.2331959829E-02    1.3319366837E-02   -9.8740700788E-04
       936.8538691329       -6.8320977900        0.7693871108    1.2058138637E-02    1.3049065403E-02   -9.9092676584E-04
       936.9539041329       -6.7320627900        0.7862649477    1.1786414808E-02    1.2791935862E-02   -1.0055210540E-03
       937.0539391329       -6.6320277900        0.8027879896    1.1514604350E-02    1.2547551514E-02   -1.0329471637E-03
       937.1539741329       -6.5319927900        0.8189778087    1.1240944883E-02    1.2315142191E-02   -1.0741973079E-03
       937.2540091329       -6.4319577900        0.8348536317    1.0964127321E-02    1.2093648410E-02   -1.1295210888E-03
       937.3540441329       -6.3319227900        0.8504332315    1.0684328578E-02    1.1882766455E-02   -1.1984378774E-03
       937.4540791329       -6.2318877900        0.8657324469    1.0403269175E-02    1.1682984907E-02   -1.2797157318E-03
       937.5541141329       -6.1318527900        0.8807659194    1.0119871253E-02    1.1491611598E-02   -1.3717403445E-03
       937.6541491329       -6.0318177900        0.8955471510    9.8375203913E-03    1.1309804540E-02   -1.4722841483E-03
       937.7541841329       -5.9317827900        0.9100882858    9.5574524981E-03    1.1136588184E-02   -1.5791356862E-03
       937.8542191329       -5.8317477900        0.9244007121    9.2811676197E-03    1.0970872846E-02   -1.6897052266E-03
       937.9542541329       -5.7317127900        0.9384949217    9.0117513495E-03    1.0813471403E-02   -1.8017200539E-03
       938.0542891329       -5.6316777900        0.9523805750    8.7505925845E-03    1.0663108765E-02   -1.9125161806E-03
       938.1543241329       -5.5316427900        0.9660667201    8.4992068795E-03    1.0519435245E-02   -2.0202283656E-03
       938.2543591329       -5.4316077900        0.9795615565    8.2594064711E-03    1.0382035010E-02   -2.1226285392E-03
       938.3543941329       -5.3315727900        0.9928730455    8.0326219548E-03    1.0250434109E-02   -2.2178121540E-03
       938.4544291329       -5.2315377900        1.0060083597    7.8204465819E-03    1.0125108133E-02   -2.3046615515E-03
       938.5544641329       -5.1315027900        1.0189744164    7.6232323055E-03    1.0004485723E-02   -2.3812534172E-03
       938.6544991329       -5.0314677900        1.0317775453    7.4431468648E-03    9.8899577956E-03   -2.4468109309E-03
