# # Once                                                         FEFF 10.0.0 
# # POT  SCF  60  4.0000   0, NO core-hole, AFOLP (folp(0)= 1.150)
# # Abs   Z=29 Rmt= 1.362 Rnm= 1.399 L3 shell
# #   RGRID 0.0100
# # Pot 1 Z=29 Rmt= 1.362 Rnm= 1.399
# # Gam_ch=5.960E-01 H-L exch Vi= 9.547E-01 Vr=-5.097E+00
# # Mu=-6.641E+00eV kf=2.188E+00 Vint=-1.697E+01eV Rs_int= 1.658
# FMS rfms= 8.0000
# # PATH  Rmax=-1.000,  Keep_limit= 0.00, Heap_limit 0.00  Pwcrit= 2.50%
#  S02=1.000  Temp=   0.00  Debye_temp=   0.00  Global_sig2= 0.00000
#  Energy zero shift, vr, vi    0.00000E+00   0.00000E+00
#  Curved wave amplitude ratio filter   4.000%
#     file         sig2 tot  cw amp ratio   deg  nlegs   reff  inp sig2
#     0/   0 paths used
#  xsedge+ 50, used to normalize mu           1.0000E+00
#  -----------------------------------------------------------------------
#  omega    e    k    mu    mu0     chi     @#
       876.2053188238      -66.5024727000       -4.1291097407    3.3074452970E-05    3.3147637339E-05   -7.3184368982E-08
       886.2053188238      -56.5024727000       -3.7980076597    4.5312215165E-05    4.5405136961E-05   -9.2921796373E-08
       896.2053188238      -46.5024727000       -3.4351390833    6.8595920734E-05    6.8713358898E-05   -1.1743816404E-07
       906.2053188238      -36.5024727000       -3.0291084512    1.2668912435E-04    1.2682403370E-04   -1.3490935485E-07
       907.7053188238      -35.0024727000       -2.9634094967    1.4325516071E-04    1.4338738290E-04   -1.3222219385E-07
       909.2053188238      -33.5024727000       -2.8962204387    1.6399900652E-04    1.6412347704E-04   -1.2447052339E-07
       910.7053188238      -32.0024727000       -2.8274352006    1.9054946096E-04    1.9065644139E-04   -1.0698043240E-07
       912.2053188238      -30.5024727000       -2.7569344660    2.2542039852E-04    2.2548996783E-04   -6.9569314257E-08
       913.7053188238      -29.0024727000       -2.6845829258    2.7262527755E-04    2.7261393655E-04    1.1340994843E-08
       915.2053188238      -27.5024727000       -2.6102266801    3.3881112025E-04    3.3861701486E-04    1.9410538282E-07
       916.2053188238      -26.5024727000       -2.5594560106    4.0033146930E-04    3.9988287673E-04    4.4859256294E-07
       916.6235438238      -26.0842477000       -2.5379212564    4.3189638271E-04    4.3128248761E-04    6.1389510309E-07
       916.7053188238      -26.0024727000       -2.5336890705    4.3853741285E-04    4.3788560502E-04    6.5180783305E-07
       917.0417688238      -25.6660227000       -2.5162022052    4.6765584020E-04    4.6682452760E-04    8.3131259366E-07
       917.4599938238      -25.2477977000       -2.4942940425    5.0840290603E-04    5.0728310093E-04    1.1198050908E-06
       917.8782188238      -24.8295727000       -2.4721915688    5.5517364520E-04    5.5366711668E-04    1.5065285245E-06
       918.2964438238      -24.4113477000       -2.4498900460    6.0925412814E-04    6.0722349497E-04    2.0306331699E-06
       918.7146688238      -23.9931227000       -2.4273834619    6.7230183728E-04    6.6955268384E-04    2.7491534452E-06
       919.1328938238      -23.5748977000       -2.4046660586    7.4645155432E-04    7.4270481435E-04    3.7467399713E-06
       919.5511188238      -23.1566727000       -2.3817323397    8.3451848987E-04    8.2936725982E-04    5.1512300482E-06
       919.9693438238      -22.7384477000       -2.3585754538    9.4023503387E-04    9.3307715143E-04    7.1578824412E-06
       920.3875688238      -22.3202227000       -2.3351886707    1.0686763798E-03    1.0586031645E-03    1.0073215344E-05
       920.8057938238      -21.9019977000       -2.3115656571    1.2268823999E-03    1.2124975550E-03    1.4384844895E-05
       921.2240188238      -21.4837727000       -2.2876987228    1.4246929992E-03    1.4038069950E-03    2.0886004193E-05
       921.6422438238      -21.0655477000       -2.2635800582    1.6764441604E-03    1.6455471956E-03    3.0896964789E-05
       922.0604688238      -20.6473227000       -2.2392015290    2.0032267940E-03    1.9565785699E-03    4.6648224091E-05
       922.4786938238      -20.2290977000       -2.2145548416    2.4369039036E-03    2.3649630215E-03    7.1940882084E-05
       922.8969188238      -19.8108727000       -2.1896306492    3.0269246169E-03    2.9137314246E-03    1.1319319230E-04
       923.3151438238      -19.3926477000       -2.1644194634    3.8505481056E-03    3.6701183659E-03    1.8042973971E-04
       923.7333688238      -18.9744227000       -2.1389111358    5.0267629240E-03    4.7414750586E-03    2.8528786542E-04
       924.1515938238      -18.5561977000       -2.1130949057    6.7198729897E-03    6.2981873210E-03    4.2168566877E-04
       924.5698188238      -18.1379727000       -2.0869591425    9.0842150076E-03    8.5974582392E-03    4.8675676836E-04
       924.9880438238      -17.7197477000       -2.0604921005    1.2067440405E-02    1.1942797178E-02    1.2464322704E-04
       925.4062688238      -17.3015227000       -2.0336807407    1.5216018603E-02    1.6348815186E-02   -1.1327965827E-03
       925.8244938238      -16.8832977000       -2.0065110487    1.7780574510E-02    2.0572051272E-02   -2.7914767619E-03
       926.2427188238      -16.4650727000       -1.9789682656    1.8921924464E-02    2.1766913815E-02   -2.8449893506E-03
       926.6609438238      -16.0468477000       -1.9510369181    1.8090767870E-02    1.8843618417E-02   -7.5285054712E-04
       927.0791688238      -15.6286227000       -1.9226996290    1.5362901329E-02    1.4325516519E-02    1.0373848102E-03
       927.4973938238      -15.2103977000       -1.8939386269    1.1891918336E-02    1.0454065372E-02    1.4378529644E-03
       927.9156188238      -14.7921727000       -1.8647338497    8.8997098703E-03    7.7055331885E-03    1.1941766819E-03
       928.3338438238      -14.3739477000       -1.8350643997    6.7270543791E-03    5.8472866332E-03    8.7976774595E-04
       928.7520688238      -13.9557227000       -1.8049074797    5.2302346993E-03    4.5886523479E-03    6.4158235136E-04
       929.1702938238      -13.5374977000       -1.7742379332    4.1996932310E-03    3.7201204647E-03    4.7957276627E-04
       929.5885188238      -13.1192727000       -1.7430287617    3.4775390447E-03    3.1073427047E-03    3.7019634006E-04
       930.0067438238      -12.7010477000       -1.7112505032    2.9602351386E-03    2.6662177190E-03    2.9401741956E-04
       930.4249688238      -12.2828227000       -1.6788709058    2.5820749349E-03    2.3435396471E-03    2.3853528778E-04
       930.8431938238      -11.8645977000       -1.6458544786    2.3013045302E-03    2.1047384762E-03    1.9656605408E-04
       931.2614188238      -11.4463727000       -1.6121618319    2.0911581645E-03    1.9269951841E-03    1.6416298046E-04
       931.6796438238      -11.0281477000       -1.5777500495    1.9337045413E-03    1.7947704583E-03    1.3893408305E-04
       932.0978688238      -10.6099227000       -1.5425706594    1.8160156067E-03    1.6970800119E-03    1.1893559477E-04
       932.5160938238      -10.1916977000       -1.5065701728    1.7287860148E-03    1.6265217437E-03    1.0226427113E-04
       932.9343188038       -9.7734727200       -1.4696880346    1.6645633968E-03    1.5773191971E-03    8.7244199697E-05
       933.3525438038       -9.3552477200       -1.4318561170    1.6183935423E-03    1.5455205862E-03    7.2872956144E-05
       933.7707688038       -8.9370227200       -1.3929972671    1.5872757155E-03    1.5280946544E-03    5.9181061068E-05
       934.1889938038       -8.5187977200       -1.3530226926    1.5700698103E-03    1.5227302405E-03    4.7339569856E-05
       934.6072188038       -8.1005727200       -1.3118306041    1.5670712784E-03    1.5275712275E-03    3.9500050925E-05
       935.0254438038       -7.6823477200       -1.2693024727    1.5796563357E-03    1.5412598825E-03    3.8396453254E-05
       935.4436688038       -7.2641227200       -1.2252991474    1.6092875435E-03    1.5627003256E-03    4.6587217894E-05
       935.8618938038       -6.8458977200       -1.1796556025    1.6561107972E-03    1.5909381697E-03    6.5172627532E-05
       936.2053388038       -6.5024527200       -1.1408083823    1.7055929423E-03    1.6189565349E-03    8.6636407407E-05
       936.2801188038       -6.4276727200       -1.1321733381    1.7173798037E-03    1.6256896466E-03    9.1690157125E-05
       937.7053388038       -5.0024527200       -0.9527546317    1.9471191210E-03    1.7838611012E-03    1.6325801984E-04
       939.2053388038       -3.5024527200       -0.7169650653    2.1562207518E-03    2.0021862937E-03    1.5403445808E-04
       941.1638188038       -1.5439727200        0.0000000000    2.5519335210E-03    2.3475408270E-03    2.0439269399E-04
       942.2053388018       -0.5024527220        0.5228441279    2.7170965609E-03    2.5522069317E-03    1.6488962921E-04
       943.7053388018        0.9975472780        0.8167425781    2.8565237307E-03    2.8649298957E-03   -8.4061649921E-06
       945.2053388038        2.4975472800        1.0299372873    2.9723397480E-03    3.1909087987E-03   -2.1856905073E-04
       946.2053388038        3.4975472800        1.1503213349    3.0565410030E-03    3.4114313130E-03   -3.5489030996E-04
       946.7053388038        3.9975472800        1.2060154198    3.1005454795E-03    3.5217739029E-03   -4.2122842339E-04
       966.2053388238       23.4975473000        2.5637091745    6.6831804815E-03    6.1033577566E-03    5.7982272497E-04
       986.2053388238       43.4975473000        3.4383092660    6.0671152383E-03    6.4359283536E-03   -3.6881311527E-04
      1006.2053388238       63.4975473000        4.1317471829    5.9905908400E-03    6.1374176971E-03   -1.4682685711E-04
      1026.2053388238       83.4975473000        4.7244789673    6.4247926595E-03    5.8273876469E-03    5.9740501258E-04
      1046.2053385238      103.4975470000        5.2507208975    5.2784167132E-03    5.5600502968E-03   -2.8163358364E-04
      1066.2053385238      123.4975470000        5.7288249205    5.1137593904E-03    5.3013114878E-03   -1.8755209747E-04
