# # Once                                                         FEFF 10.0.0 
# # POT  SCF  60  4.0000   0, NO core-hole, AFOLP (folp(0)= 1.150)
# # Abs   Z=29 Rmt= 1.362 Rnm= 1.399 L3 shell
# #   RGRID 0.0100
# # Pot 1 Z=29 Rmt= 1.362 Rnm= 1.399
# # Gam_ch=5.960E-01 H-L exch Vi= 1.014E+00 Vr=-5.484E+00
# # Mu=-6.757E+00eV kf=2.194E+00 Vint=-1.698E+01eV Rs_int= 1.653
# FMS rfms= 8.0000
# # PATH  Rmax=-1.000,  Keep_limit= 0.00, Heap_limit 0.00  Pwcrit= 2.50%
#  S02=1.000  Temp=   0.00  Debye_temp=   0.00  Global_sig2= 0.00000
#  Energy zero shift, vr, vi    0.00000E+00   0.00000E+00
#  Curved wave amplitude ratio filter   4.000%
#     file         sig2 tot  cw amp ratio   deg  nlegs   reff  inp sig2
#     0/   0 paths used
#  xsedge+ 50, used to normalize mu           1.0000E+00
#  -----------------------------------------------------------------------
#  omega    e    k    mu    mu0     chi     @#
       876.0612369494      -66.7625007000       -4.1459616107    3.4312226943E-05    3.4384209886E-05   -7.1982943007E-08
       886.0612369494      -56.7625007000       -3.8163218693    4.7060935801E-05    4.7152861571E-05   -9.1925770312E-08
       896.0612369494      -46.7625007000       -3.4553768601    7.1391594780E-05    7.1508949782E-05   -1.1735500209E-07
       906.0611369494      -36.7626007000       -3.0520442293    1.3236418284E-04    1.3250178876E-04   -1.3760592577E-07
       907.5611369494      -35.2626007000       -2.9868495293    1.4979434740E-04    1.4992978401E-04   -1.3543660901E-07
       909.0611369494      -33.7626007000       -2.9202001298    1.7163723140E-04    1.7176525361E-04   -1.2802220846E-07
       910.5611369494      -32.2626007000       -2.8519932999    1.9961788899E-04    1.9972826261E-04   -1.1037361917E-07
       912.0611369494      -30.7626007000       -2.7821151072    2.3640192553E-04    2.3647355483E-04   -7.1629300958E-08
       913.5611369494      -29.2626007000       -2.7104356577    2.8626154115E-04    2.8624820159E-04    1.3339552253E-08
       915.0611369494      -27.7626007000       -2.6368083811    3.5627680608E-04    3.5607040781E-04    2.0639826861E-07
       916.0611369494      -26.7626007000       -2.5865596917    4.2098011743E-04    4.2050713793E-04    4.7297950227E-07
       916.4991339494      -26.3246037000       -2.5642405626    4.5598159421E-04    4.5532589156E-04    6.5570265266E-07
       916.5611369494      -26.2626007000       -2.5610655401    4.6131928973E-04    4.6063324107E-04    6.8604865980E-07
       916.9371309494      -25.8866067000       -2.5417256222    4.9593790609E-04    4.9503869432E-04    8.9921176176E-07
       917.3751279494      -25.4486097000       -2.5190096200    5.4178619479E-04    5.4055986354E-04    1.2263312524E-06
       917.8131249494      -25.0106127000       -2.4960867255    5.9479978333E-04    5.9312933155E-04    1.6704517876E-06
       918.2511219494      -24.5726157000       -2.4729514436    6.5660115385E-04    6.5432064882E-04    2.2805050275E-06
       918.6891189494      -24.1346187000       -2.4495975828    7.2930249619E-04    7.2617330970E-04    3.1291864866E-06
       919.1271159494      -23.6966217000       -2.4260190063    8.1567343421E-04    8.1134741614E-04    4.3260180712E-06
       919.5651129494      -23.2586247000       -2.4022090084    9.1940153401E-04    9.1336218512E-04    6.0393488810E-06
       920.0031099494      -22.8206277000       -2.3781606383    1.0454807818E-03    1.0369480709E-03    8.5327108827E-06
       920.4411069494      -22.3826307000       -2.3538664994    1.2008589009E-03    1.1886324830E-03    1.2226417876E-05
       920.8791039494      -21.9446337000       -2.3293189933    1.3953020248E-03    1.3774953219E-03    1.7806702908E-05
       921.3171009494      -21.5066367000       -2.3045101158    1.6428275617E-03    1.6164147858E-03    2.6412775901E-05
       921.7550979494      -21.0686397000       -2.2794312394    1.9643156825E-03    1.9243413325E-03    3.9974349914E-05
       922.1930949494      -20.6306427000       -2.2540731631    2.3911695577E-03    2.3293811353E-03    6.1788422420E-05
       922.6310919494      -20.1926457000       -2.2284267379    2.9722469792E-03    2.8748204613E-03    9.7426517872E-05
       923.0690889494      -19.7546487000       -2.2024816007    3.7840267280E-03    3.6283752194E-03    1.5565150861E-04
       923.5070859494      -19.3166517000       -2.1762271658    4.9447555667E-03    4.6980224906E-03    2.4673307611E-04
       923.9450829494      -18.8786547000       -2.1496521994    6.6214170135E-03    6.2556295939E-03    3.6578741959E-04
       924.3830799494      -18.4406577000       -2.1227444627    8.9794536165E-03    8.5574410619E-03    4.2201255451E-04
       924.8210769494      -18.0026607000       -2.0954913398    1.1986861828E-02    1.1895625891E-02    9.1235937131E-05
       925.2590739494      -17.5646637000       -2.0678789690    1.5168728139E-02    1.6228437205E-02   -1.0597090657E-03
       925.6970709494      -17.1266667000       -2.0398928663    1.7686589853E-02    2.0201394401E-02   -2.5148045486E-03
       926.1350679494      -16.6886697000       -2.0115175384    1.8628130350E-02    2.1012003371E-02   -2.3838730212E-03
       926.5730649494      -16.2506727000       -1.9827361672    1.7457976462E-02    1.7920414156E-02   -4.6243769407E-04
       927.0110619494      -15.8126757000       -1.9535306970    1.4493657522E-02    1.3527442744E-02    9.6621477827E-04
       927.4490589494      -15.3746787000       -1.9238820352    1.1072029120E-02    9.8586401904E-03    1.2133889299E-03
       927.8870559494      -14.9366817000       -1.8937691414    8.2636224870E-03    7.2749237296E-03    9.8869875741E-04
       928.3250529494      -14.4986847000       -1.8631696781    6.2626957887E-03    5.5316896793E-03    7.3100610941E-04
       928.7630499494      -14.0606877000       -1.8320592650    4.8901233069E-03    4.3507078125E-03    5.3941549440E-04
       929.2010469494      -13.6226907000       -1.8004112380    3.9439000602E-03    3.5348221304E-03    4.0907792987E-04
       929.6390439494      -13.1846937000       -1.7681969105    3.2796354668E-03    2.9590818080E-03    3.2055365877E-04
       930.0770409494      -12.7466967000       -1.7353847457    2.8029848704E-03    2.5446461616E-03    2.5833870879E-04
       930.5150379494      -12.3086997000       -1.7019399787    2.4541029281E-03    2.2415945563E-03    2.1250837185E-04
       930.9530349494      -11.8707027000       -1.6678247448    2.1952984408E-03    2.0178897060E-03    1.7740873476E-04
       931.3910319494      -11.4327057000       -1.6329970241    2.0019736688E-03    1.8519693937E-03    1.5000427516E-04
       931.8290289494      -10.9947087000       -1.5974100817    1.8575820713E-03    1.7291621541E-03    1.2841991721E-04
       932.2670259494      -10.5567117000       -1.5610120619    1.7502148821E-03    1.6391975091E-03    1.1101737305E-04
       932.7050229494      -10.1187147000       -1.5237448428    1.6713140944E-03    1.5751728414E-03    9.6141253002E-05
       933.1430199694       -9.6807176800       -1.4855429382    1.6141928156E-03    1.5317309914E-03    8.2461824192E-05
       933.5810169694       -9.2427206800       -1.4463323605    1.5743765780E-03    1.5049320368E-03    6.9444541170E-05
       934.0190139694       -8.8047236800       -1.4060289510    1.5496830523E-03    1.4919926946E-03    5.7690357730E-05
       934.4570109694       -8.3667266800       -1.3645353325    1.5395135634E-03    1.4906063273E-03    4.8907236042E-05
       934.8950079694       -7.9287296800       -1.3217399398    1.5447845490E-03    1.4991842638E-03    4.5600285252E-05
       935.3330049694       -7.4907326800       -1.2775117468    1.5667818144E-03    1.5163842571E-03    5.0397557275E-05
       935.7710019694       -7.0527356800       -1.2316963283    1.6060071148E-03    1.5411214073E-03    6.4885707444E-05
       936.0611869694       -6.7625506800       -1.2003797922    1.6407103821E-03    1.5612524377E-03    7.9457944364E-05
       936.2089989694       -6.6147386800       -1.1841095503    1.6605595768E-03    1.5728426748E-03    8.7716902028E-05
       937.5611869694       -5.2625506800       -1.0233324331    1.8608240681E-03    1.7077602663E-03    1.5306380179E-04
       939.0611869694       -3.7625506800       -0.8083975665    2.0574764243E-03    1.9081184356E-03    1.4935798870E-04
       940.5611869694       -2.2625506800       -0.5097099391    2.3321275266E-03    2.1503597947E-03    1.8176773194E-04
       941.5510369694       -1.2727006800        0.0000000000    2.5127924599E-03    2.3285934824E-03    1.8419897744E-04
       943.5611869734        0.7374493240        0.7263612496    2.7361486496E-03    2.7242184195E-03    1.1930230126E-05
       945.0611869694        2.2374493200        0.9598453218    2.8525194968E-03    3.0394127917E-03   -1.8689329482E-04
       946.0611869694        3.2374493200        1.0880125427    2.9375412709E-03    3.2546183293E-03   -3.1707705832E-04
       946.5611869694        3.7374493200        1.1467369032    2.9816551056E-03    3.3628253418E-03   -3.8117023625E-04
       966.0611869494       23.2374493000        2.5363630018    6.6036126908E-03    6.0360607412E-03    5.6755194966E-04
       986.0611869494       43.2374493000        3.4179675690    6.0574817801E-03    6.4210325743E-03   -3.6355079423E-04
      1006.0611869494       63.2374493000        4.1148350306    5.9867753623E-03    6.1318940091E-03   -1.4511864676E-04
      1026.0611869494       83.2374493000        4.7096957500    6.4175886377E-03    5.8239824357E-03    5.9360620198E-04
      1046.0611866494      103.2374490000        5.2374231055    5.2739044269E-03    5.5576848963E-03   -2.8378046944E-04
      1066.0611866494      123.2374490000        5.7166392320    5.1114005529E-03    5.2995727238E-03   -1.8817217092E-04
