# # Once                                                         FEFF 10.0.0 
# # POT  SCF  60  4.0000   0, NO core-hole, AFOLP (folp(0)= 1.150)
# # Abs   Z=29 Rmt= 1.362 Rnm= 1.399 L3 shell
# #   RGRID 0.0100
# # Pot 1 Z=29 Rmt= 1.362 Rnm= 1.399
# # Gam_ch=5.960E-01 H-L exch Vi= 4.209E-02 Vr= 0.000E+00
# # Mu=-7.023E+00eV kf=2.036E+00 Vint=-1.643E+01eV Rs_int= 1.781
# FMS rfms= 8.0000
# # PATH  Rmax=-1.000,  Keep_limit= 0.00, Heap_limit 0.00  Pwcrit= 2.50%
#  S02=1.000  Temp=   0.00  Debye_temp=   0.00  Global_sig2= 0.00000
#  Energy zero shift, vr, vi    0.00000E+00   0.00000E+00
#  Curved wave amplitude ratio filter   4.000%
#     file         sig2 tot  cw amp ratio   deg  nlegs   reff  inp sig2
#     0/   0 paths used
#  xsedge+ 50, used to normalize mu           1.0000E+00
#  -----------------------------------------------------------------------
#  omega    e    k    mu    mu0     chi     @#
       882.8751523742      -60.2151326000       -3.7364602380    1.0635807407E-05    1.0598631585E-05    3.7175821775E-08
       892.8751523742      -50.2151326000       -3.3669646411    1.4318222351E-05    1.4242615365E-05    7.5606986550E-08
       902.8751523742      -40.2151326000       -2.9515704941    2.0807716516E-05    2.0630878078E-05    1.7683843827E-07
       912.8751523742      -30.2151326000       -2.4672020324    3.4864078208E-05    3.4336604533E-05    5.2747367508E-07
       914.3751523742      -28.7151326000       -2.3860812444    3.8473271165E-05    3.7830715826E-05    6.4255533812E-07
       915.8751523742      -27.2151326000       -2.3021035357    4.2365122019E-05    4.1573667480E-05    7.9145453926E-07
       917.3751523742      -25.7151326000       -2.2149443616    4.8194795480E-05    4.7203718074E-05    9.9107740577E-07
       918.8751523742      -24.2151326000       -2.1242118386    5.4950449579E-05    5.3690239884E-05    1.2602096954E-06
       920.3751523742      -22.7151326000       -2.0294269564    6.3662396606E-05    6.2028680592E-05    1.6337160144E-06
       921.8751523742      -21.2151326000       -1.9299926443    7.5349203507E-05    7.3181642815E-05    2.1675606920E-06
       922.8751523742      -20.2151326000       -1.8607533233    8.5637793714E-05    8.2980174264E-05    2.6576194500E-06
       922.9891833742      -20.1011016000       -1.8526936052    8.6980903014E-05    8.4258383891E-05    2.7225191229E-06
       923.1032143742      -19.9870706000       -1.8445985562    8.8364349500E-05    8.5574806242E-05    2.7895432581E-06
       923.2172453742      -19.8730396000       -1.8364678831    8.9789850115E-05    8.6931066332E-05    2.8587837831E-06
       923.3312763742      -19.7590086000       -1.8283010521    9.1259307842E-05    8.8328974709E-05    2.9303331327E-06
       923.3751523742      -19.7151326000       -1.8251490398    9.1836858286E-05    8.8878358468E-05    2.9584998178E-06
       923.4453073742      -19.6449776000       -1.8200976353    9.2774833063E-05    8.9770539543E-05    3.0042935209E-06
       923.5593383742      -19.5309466000       -1.8118570180    9.4338789374E-05    9.1258018236E-05    3.0807711377E-06
       923.6733693742      -19.4169156000       -1.8035786905    9.5953469052E-05    9.2793588266E-05    3.1598807863E-06
       923.7874003742      -19.3028846000       -1.7952623088    9.7621395361E-05    9.4379652543E-05    3.2417428187E-06
       923.9014313742      -19.1888536000       -1.7869071630    9.9345172471E-05    9.6018686764E-05    3.3264857072E-06
       924.0154623742      -19.0748226000       -1.7785128264    1.0112770470E-04    9.7713453830E-05    3.4142508661E-06
       924.1294933742      -18.9607916000       -1.7700786213    1.0297199791E-04    9.9466815969E-05    3.5051819416E-06
       924.2435243742      -18.8467606000       -1.7616040353    1.0488127953E-04    1.0128183189E-04    3.5994476462E-06
       924.3575553742      -18.7327296000       -1.7530885437    1.0685903033E-04    1.0316181106E-04    3.6972192706E-06
       924.4715863742      -18.6186986000       -1.7445314253    1.0890903777E-04    1.0511034279E-04    3.7986949851E-06
       924.5856173742      -18.5046676000       -1.7359320645    1.1103514461E-04    1.0713106050E-04    3.9040841081E-06
       924.6996483742      -18.3906366000       -1.7272899538    1.1324196619E-04    1.0922833058E-04    4.0136356177E-06
       924.8136793742      -18.2766056000       -1.7186044481    1.1553390682E-04    1.1140627619E-04    4.1276306396E-06
       924.9277103742      -18.1625746000       -1.7098747618    1.1791623226E-04    1.1366982752E-04    4.2464047318E-06
       925.0417413742      -18.0485436000       -1.7011002771    1.2039450828E-04    1.1602413336E-04    4.3703749227E-06
       925.1557723742      -17.9345126000       -1.6922802973    1.2297456281E-04    1.1847452557E-04    4.5000372401E-06
       925.2698033742      -17.8204816000       -1.6834141072    1.2566330413E-04    1.2102716907E-04    4.6361350682E-06
       925.3838343742      -17.7064506000       -1.6745009729    1.2846814272E-04    1.2368855636E-04    4.7795863607E-06
       925.4978653742      -17.5924196000       -1.6655401406    1.3139749019E-04    1.2646569723E-04    4.9317929569E-06
       925.6118963742      -17.4783886000       -1.6565308363    1.3446059354E-04    1.2936634105E-04    5.0942524947E-06
       925.7259273742      -17.3643576000       -1.6474722649    1.3766618780E-04    1.3239879747E-04    5.2673903276E-06
       925.8399583742      -17.2503266000       -1.6383636740    1.4101915721E-04    1.3557228762E-04    5.4468695971E-06
       925.9539893742      -17.1362956000       -1.6292040940    1.4452071356E-04    1.3889690673E-04    5.6238068260E-06
       926.0680203742      -17.0222646000       -1.6199926601    1.4818190416E-04    1.4238362357E-04    5.7982805948E-06
       926.1820513742      -16.9082336000       -1.6107286809    1.5202592497E-04    1.4604468736E-04    5.9812376126E-06
       926.2960823742      -16.7942026000       -1.6014110451    1.5607457089E-04    1.4989371914E-04    6.1808517457E-06
       926.4101133742      -16.6801716000       -1.5920388774    1.6034778840E-04    1.5394595729E-04    6.4018311180E-06
       926.5241443742      -16.5661406000       -1.5826112090    1.6486309541E-04    1.5821813109E-04    6.6449643250E-06
       926.6381753742      -16.4521096000       -1.5731270421    1.6963841196E-04    1.6272854016E-04    6.9098717947E-06
       926.7522063742      -16.3380786000       -1.5635853487    1.7468087471E-04    1.6749656720E-04    7.1843075080E-06
       926.8662373742      -16.2240476000       -1.5539851374    1.8000403053E-04    1.7254244142E-04    7.4615891153E-06
       926.9802683742      -16.1100166000       -1.5443251792    1.8563205549E-04    1.7788909702E-04    7.7429584658E-06
       927.0942993742      -15.9959856000       -1.5346044151    1.9160349006E-04    1.8356285051E-04    8.0406395520E-06
       927.2083303742      -15.8819546000       -1.5248216124    1.9796024417E-04    1.8959446619E-04    8.3657779831E-06
       927.3223613742      -15.7679236000       -1.5149757801    2.0474612675E-04    1.9601851058E-04    8.7276161676E-06
       927.4363923742      -15.6538926000       -1.5050653983    2.1200876351E-04    2.0287415357E-04    9.1346099368E-06
       927.5504233742      -15.5398616000       -1.4950894682    2.1980218380E-04    2.1020584975E-04    9.5963340558E-06
       927.6644543742      -15.4258306000       -1.4850464537    2.2818756260E-04    2.1806415836E-04    1.0123404237E-05
       927.7784853742      -15.3117996000       -1.4749350567    2.3723613935E-04    2.2650646281E-04    1.0729676539E-05
       927.8925163742      -15.1977686000       -1.4647538610    2.4703075099E-04    2.3559887639E-04    1.1431874598E-05
       928.0065473742      -15.0837376000       -1.4545014740    2.5766821956E-04    2.4541717430E-04    1.2251045261E-05
       928.1205783742      -14.9697066000       -1.4441761585    2.6926291883E-04    2.5604944583E-04    1.3213473006E-05
       928.2346093742      -14.8556756000       -1.4337765616    2.8194975206E-04    2.6759718773E-04    1.4352564328E-05
       928.3486403742      -14.7416446000       -1.4233010551    2.9589146748E-04    2.8017975366E-04    1.5711713822E-05
       928.4626713742      -14.6276136000       -1.4127477996    3.1128573212E-04    2.9393641519E-04    1.7349316930E-05
       928.5767023742      -14.5135826000       -1.4021151154    3.2837786566E-04    3.0903175028E-04    1.9346115376E-05
       928.6907333742      -14.3995516000       -1.3914011818    3.4747787336E-04    3.2566126327E-04    2.1816610089E-05
       928.8047643742      -14.2855206000       -1.3806041842    3.6898453221E-04    3.4405732171E-04    2.4927210498E-05
       928.9187953742      -14.1714896000       -1.3697220029    3.9342350480E-04    3.6450298250E-04    2.8920522292E-05
       929.0328263742      -14.0574586000       -1.3587527479    4.2148784177E-04    3.8733311566E-04    3.4154726111E-05
       929.1468573742      -13.9434276000       -1.3476940561    4.5411436816E-04    4.1296375558E-04    4.1150612578E-05
       929.2608883742      -13.8293966000       -1.3365439464    4.9256090470E-04    4.4189569187E-04    5.0665212830E-05
       929.3749193742      -13.7153656000       -1.3253000311    5.3847690583E-04    4.7476395725E-04    6.3712948584E-05
       929.4889503742      -13.6013346000       -1.3139599020    5.9381235519E-04    5.1235344241E-04    8.1458912782E-05
       929.6029813742      -13.4873036000       -1.3025210871    6.6021020728E-04    5.5564205206E-04    1.0456815522E-04
       929.7170123742      -13.3732726000       -1.2909809219    7.3760666850E-04    6.0589741440E-04    1.3170925410E-04
       929.8310433742      -13.2592416000       -1.2793365804    8.2338536843E-04    6.6473845979E-04    1.5864690864E-04
       929.9450743742      -13.1452106000       -1.2675853177    9.1718710806E-04    7.3424205825E-04    1.8294504982E-04
       930.0591053742      -13.0311796000       -1.2557241745    1.0280962165E-03    8.1720415183E-04    2.1089206468E-04
       930.1731363742      -12.9171486000       -1.2437497931    1.1683021124E-03    9.1728223238E-04    2.5101988003E-04
       930.2871673742      -12.8031176000       -1.2316590436    1.3389732390E-03    1.0394399615E-03    2.9953327745E-04
       930.4011983742      -12.6890866000       -1.2194484646    1.5237674593E-03    1.1904796852E-03    3.3328777406E-04
       930.5152293742      -12.5750556000       -1.2071143316    1.7044319914E-03    1.3797636576E-03    3.2466833386E-04
       930.6292603742      -12.4610246000       -1.1946529068    1.8914437001E-03    1.6204151724E-03    2.7102852777E-04
       930.7432913742      -12.3469936000       -1.1820600294    2.1103891429E-03    1.9309663351E-03    1.7942280780E-04
       930.8573223742      -12.2329626000       -1.1693316800    2.3696255308E-03    2.3376403735E-03    3.1985157269E-05
       930.9713533742      -12.1189316000       -1.1564630633    2.6741026716E-03    2.8769433834E-03   -2.0284071188E-04
       931.0853843742      -12.0049006000       -1.1434498159    3.0345285080E-03    3.5981623833E-03   -5.6363387535E-04
       931.1994153742      -11.8908696000       -1.1302867068    3.4696697532E-03    4.5607772459E-03   -1.0911074927E-03
       931.3134463742      -11.7768386000       -1.1169683427    4.0273895719E-03    5.8201028617E-03   -1.7927132898E-03
       931.4274773742      -11.6628076000       -1.1034893431    4.7380672915E-03    7.3879774012E-03   -2.6499101097E-03
       931.5415083742      -11.5487766000       -1.0898436503    5.5027351758E-03    9.1657204681E-03   -3.6629852923E-03
       931.6555393742      -11.4347456000       -1.0760249720    6.0732977074E-03    1.0870345717E-02   -4.7970480092E-03
       931.7695703742      -11.3207146000       -1.0620265056    6.2683384179E-03    1.2030645975E-02   -5.7623075576E-03
       931.8836013742      -11.2066836000       -1.0478409948    6.2955247054E-03    1.2230836822E-02   -5.9353121163E-03
       931.9976323742      -11.0926526000       -1.0334607889    6.6702051328E-03    1.1486858304E-02   -4.8166531711E-03
       932.1116633742      -10.9786216000       -1.0188776443    7.5898437391E-03    1.0215033049E-02   -2.6251893100E-03
       932.2256943742      -10.8645906000       -1.0040827186    8.7507668320E-03    8.8506375326E-03   -9.9870700679E-05
       932.3397253742      -10.7505596000       -0.9890666158    9.8971865164E-03    7.6331983700E-03    2.2639881464E-03
       932.4537563742      -10.6365286000       -0.9738188857    1.0998908248E-02    6.6351240081E-03    4.3637842400E-03
       932.5677873742      -10.5224976000       -0.9583285835    1.2102605677E-02    5.8487557503E-03    6.2538499271E-03
       932.6818183742      -10.4084666000       -0.9425837500    1.3260336371E-02    5.2387142844E-03    8.0216220867E-03
       932.7958493742      -10.2944356000       -0.9265714099    1.4246835387E-02    4.7691533471E-03    9.4776820396E-03
       932.9098803742      -10.1804046000       -0.9102774756    1.4411396346E-02    4.4087851738E-03    1.0002611172E-02
       933.0239113742      -10.0663736000       -0.8936864557    1.3304922416E-02    4.1337724921E-03    9.1711499243E-03
       933.1379424042       -9.9523425700       -0.8767816372    1.1307467886E-02    3.9254471676E-03    7.3820207184E-03
       933.2519734042       -9.8383115700       -0.8595443200    9.2686256675E-03    3.7703058370E-03    5.4983198305E-03
       933.3660044042       -9.7242805700       -0.8419542404    7.6675077781E-03    3.6578213675E-03    4.0096864105E-03
       933.4800354042       -9.6102495700       -0.8239887104    6.5291386545E-03    3.5801449693E-03    2.9489936852E-03
       933.5940664042       -9.4962185700       -0.8056226783    5.7359338843E-03    3.5315368239E-03    2.2043970604E-03
       933.7080974042       -9.3821875700       -0.7868280318    5.1788434960E-03    3.5073044351E-03    1.6715390608E-03
       933.8221284042       -9.2681565700       -0.7675733558    4.7831811536E-03    3.5041016916E-03    1.2790794620E-03
       933.9361594042       -9.1541255700       -0.7478231173    4.5009058314E-03    3.5191021114E-03    9.8180372006E-04
       934.0501904042       -9.0400945700       -0.7275368124    4.3011406001E-03    3.5501917631E-03    7.5094883708E-04
       934.1642214042       -8.9260635700       -0.7066684643    4.1629383196E-03    3.5951138156E-03    5.6782450399E-04
       934.2782524042       -8.8120325700       -0.6851648148    4.0727781071E-03    3.6527421880E-03    4.2003591911E-04
       934.3922834042       -8.6980015700       -0.6629639874    4.0204663050E-03    3.7215580582E-03    2.9890824684E-04
       934.5063144042       -8.5839705700       -0.6399935367    3.9989549008E-03    3.8005954456E-03    1.9835945517E-04
       934.6203454042       -8.4699395700       -0.6161673734    4.0026352195E-03    3.8886616095E-03    1.1397361000E-04
       934.7343764042       -8.3559085700       -0.5913820117    4.0273949366E-03    3.9848462351E-03    4.2548701525E-05
       934.8484074042       -8.2418775700       -0.5655114400    4.0700520514E-03    4.0883436084E-03   -1.8291557038E-05
       934.9624384042       -8.1278465700       -0.5383991709    4.1279848345E-03    4.1983707829E-03   -7.0385948383E-05
       935.0764694042       -8.0138155700       -0.5098471787    4.1987658169E-03    4.3140085911E-03   -1.1524277416E-04
       935.1905004042       -7.8997845700       -0.4795983987    4.2799465508E-03    4.4341787387E-03   -1.5423218781E-04
       935.3045314042       -7.7857535700       -0.4473087328    4.3694422150E-03    4.5581745515E-03   -1.8873233651E-04
       935.4185624042       -7.6717225700       -0.4124991566    4.4650908162E-03    4.6852803354E-03   -2.2018951926E-04
       935.5325934042       -7.5576915700       -0.3744677012    4.5643360825E-03    4.8145706440E-03   -2.5023456149E-04
       935.6466244042       -7.4436605700       -0.3321092054    4.6648164019E-03    4.9453799075E-03   -2.8056350556E-04
       935.7606554042       -7.3296295700       -0.2834907571    4.7633048587E-03    5.0763637182E-03   -3.1305885947E-04
       935.8746864042       -7.2155985700       -0.2245829122    4.8577164159E-03    5.2072436735E-03   -3.4952725760E-04
       935.9887174042       -7.1015675700       -0.1432060038    4.9454670516E-03    5.3371507447E-03   -3.9168369305E-04
       936.0668524042       -7.0234325700        0.0000000000    5.0003872167E-03    5.4250354219E-03   -4.2464820519E-04
       936.2167794042       -6.8735055700        0.1983710673    5.1001686044E-03    5.5960340291E-03   -4.9586542465E-04
       936.3308104042       -6.7594745700        0.2632120918    5.1633029340E-03    5.7228018605E-03   -5.5949892646E-04
       936.4448414042       -6.6454435700        0.3149763910    5.2147468204E-03    5.8461917887E-03   -6.3144496825E-04
       936.5588724042       -6.5314125700        0.3593600541    5.2538352200E-03    5.9651504924E-03   -7.1131527233E-04
       936.6729034042       -6.4173815700        0.3988347654    5.2808140442E-03    6.0791259213E-03   -7.9831187707E-04
       936.7869344042       -6.3033505700        0.4347397977    5.2970130268E-03    6.1882526274E-03   -8.9123960064E-04
       936.9009654042       -6.1893195700        0.4678976526    5.3033845790E-03    6.2919522118E-03   -9.8856763285E-04
       937.0149964042       -6.0752885700        0.4988564138    5.3010805730E-03    6.3895869987E-03   -1.0885064256E-03
       937.1290274042       -5.9612575700        0.5280031216    5.2919922497E-03    6.4811190669E-03   -1.1891268172E-03
       937.2430584042       -5.8472265700        0.5556228620    5.2774197510E-03    6.5658487366E-03   -1.2884289856E-03
       937.3570894042       -5.7331955700        0.5819332776    5.2608430365E-03    6.6451837808E-03   -1.3843407443E-03
       937.4711204042       -5.6191645700        0.6071044676    5.2428027443E-03    6.7176749950E-03   -1.4748722507E-03
       937.5851514042       -5.5051335700        0.6312728275    5.2259810637E-03    6.7840613640E-03   -1.5580803003E-03
       937.6991824042       -5.3911025700        0.6545493700    5.2121698205E-03    6.8443233610E-03   -1.6321535405E-03
       937.8132134042       -5.2770715700        0.6770261241    5.2038234833E-03    6.8991639675E-03   -1.6953404842E-03
       937.9272444042       -5.1630405700        0.6987803095    5.2017692422E-03    6.9477717413E-03   -1.7460024991E-03
       938.0412754042       -5.0490095700        0.7198773987    5.2074777095E-03    6.9900152473E-03   -1.7825375379E-03
       938.1553064042       -4.9349785700        0.7403734942    5.2249427596E-03    7.0283464285E-03   -1.8034036689E-03
       938.2693374042       -4.8209475700        0.7603173411    5.2538606511E-03    7.0609200061E-03   -1.8070593550E-03
       938.3833684042       -4.7069165700        0.7797512471    5.2965674855E-03    7.0884639878E-03   -1.7918965023E-03
       938.4973994042       -4.5928855700        0.7987124028    5.3554258159E-03    7.1116695840E-03   -1.7562437680E-03
       938.6114304042       -4.4788545700        0.8172337796    5.4328369871E-03    7.1312204883E-03   -1.6983835012E-03
       938.7254614042       -4.3648235700        0.8353445351    5.5306130760E-03    7.1471199567E-03   -1.6165068807E-03
       938.8394924042       -4.2507925700        0.8530709781    5.6502182493E-03    7.1591036488E-03   -1.5088853995E-03
       938.9535234042       -4.1367615700        0.8704364358    5.7939344011E-03    7.1679288132E-03   -1.3739944120E-03
       939.0675544042       -4.0227305700        0.8874621590    5.9630826866E-03    7.1739098169E-03   -1.2108271303E-03
       939.1815854042       -3.9086995700        0.9041673989    6.1578038337E-03    7.1770833880E-03   -1.0192795543E-03
       939.2956164042       -3.7946685700        0.9205695158    6.3770895628E-03    7.1778862338E-03   -8.0079667100E-04
