# # Once                                                         FEFF 10.0.0 
# # POT  SCF  60  4.0000   0, NO core-hole, AFOLP (folp(0)= 1.150)
# # Abs   Z=29 Rmt= 1.362 Rnm= 1.399 L3 shell
# #   RGRID 0.0100
# # Pot 1 Z=29 Rmt= 1.362 Rnm= 1.399
# # Gam_ch=5.960E-01 H-L exch Vi= 6.000E-05 Vr= 3.865E-02
# # Mu=-7.619E+00eV kf=2.012E+00 Vint=-1.628E+01eV Rs_int= 1.802
# FMS rfms= 8.0000
# # PATH  Rmax=-1.000,  Keep_limit= 0.00, Heap_limit 0.00  Pwcrit= 2.50%
#  S02=1.000  Temp=   0.00  Debye_temp=   0.00  Global_sig2= 0.00000
#  Energy zero shift, vr, vi    0.00000E+00   0.00000E+00
#  Curved wave amplitude ratio filter   4.000%
#     file         sig2 tot  cw amp ratio   deg  nlegs   reff  inp sig2
#     0/   0 paths used
#  xsedge+ 50, used to normalize mu           1.0000E+00
#  -----------------------------------------------------------------------
#  omega    e    k    mu    mu0     chi     @#
       884.1494128473      -59.5366602000       -3.6900596827    9.0915114336E-06    9.3739159403E-06   -2.8240450670E-07
       894.1494128473      -49.5366602000       -3.3153969743    1.2116584531E-05    1.2535369654E-05   -4.1878512291E-07
       904.1494128473      -39.5366602000       -2.8926068838    1.7291271187E-05    1.7975631181E-05   -6.8435999423E-07
       914.1494128473      -29.5366602000       -2.3963496501    2.7813048151E-05    2.9134418187E-05   -1.3213700356E-06
       915.6494128473      -28.0366602000       -2.3127447339    3.0335211301E-05    3.1827618626E-05   -1.4924073252E-06
       917.1494128473      -26.5366602000       -2.2260023508    3.3314136693E-05    3.5014035341E-05   -1.6998986478E-06
       918.6494128473      -25.0366602000       -2.1357397552    3.6966390043E-05    3.8921378380E-05   -1.9549883372E-06
       920.1494128473      -23.5366602000       -2.0414900715    4.1299323748E-05    4.3573699115E-05   -2.2743753670E-06
       921.6494128473      -22.0366602000       -1.9426731898    4.6623939433E-05    4.9305894659E-05   -2.6819552253E-06
       923.1494128473      -20.5366602000       -1.8385528944    5.3322435199E-05    5.6536512655E-05   -3.2140774553E-06
       924.1494128473      -19.5366602000       -1.7657315958    5.8833614167E-05    6.2498333484E-05   -3.6647193170E-06
       924.2494338473      -19.4366392000       -1.7582820455    5.9441898230E-05    6.3156935779E-05   -3.7150375489E-06
       924.3494548473      -19.3366182000       -1.7508008590    6.0061849974E-05    6.3828259571E-05   -3.7664095964E-06
       924.4494758473      -19.2365972000       -1.7432874457    6.0693682136E-05    6.4512549909E-05   -3.8188677726E-06
       924.5494968473      -19.1365762000       -1.7357416324    6.1337726335E-05    6.5210162848E-05   -3.8724365133E-06
       924.6494128473      -19.0366602000       -1.7281707542    6.1993776343E-05    6.5920867275E-05   -3.9270909320E-06
       924.7495388473      -18.9365342000       -1.7205505421    6.2664211117E-05    6.6647240423E-05   -3.9830293063E-06
       924.8495598473      -18.8365132000       -1.7129045695    6.3347275581E-05    6.7387384687E-05   -4.0401091063E-06
       924.9495808473      -18.7364922000       -1.7052242514    6.4044163066E-05    6.8142577351E-05   -4.0984142849E-06
       925.0496018473      -18.6364712000       -1.6975091843    6.4755339814E-05    6.8913318309E-05   -4.1579784950E-06
       925.1496228473      -18.5364502000       -1.6897587663    6.5481128182E-05    6.9699950611E-05   -4.2188224289E-06
       925.2496438473      -18.4364292000       -1.6819728251    6.6222029995E-05    7.0503007081E-05   -4.2809770865E-06
       925.3496648473      -18.3364082000       -1.6741506744    6.6978560338E-05    7.1323020789E-05   -4.3444604517E-06
       925.4496858473      -18.2363872000       -1.6662916765    6.7751249553E-05    7.2160543466E-05   -4.4092939131E-06
       925.5497068473      -18.1363662000       -1.6583955000    6.8540592773E-05    7.3016081655E-05   -4.4754888816E-06
       925.6497278473      -18.0363452000       -1.6504614824    6.9347273415E-05    7.3890309619E-05   -4.5430362042E-06
       925.7497488473      -17.9363242000       -1.6424892049    7.0171845678E-05    7.4783767114E-05   -4.6119214357E-06
       925.8497698473      -17.8363032000       -1.6344780425    7.1015002001E-05    7.5697099010E-05   -4.6820970100E-06
       925.9497908473      -17.7362822000       -1.6264274861    7.1877475380E-05    7.6630956211E-05   -4.7534808304E-06
       926.0498118473      -17.6362612000       -1.6183368162    7.2760225127E-05    7.7586115315E-05   -4.8258901881E-06
       926.1498328473      -17.5362402000       -1.6102054944    7.3664239921E-05    7.8563278787E-05   -4.8990388660E-06
       926.2498538473      -17.4362192000       -1.6020327686    7.4590697080E-05    7.9563129593E-05   -4.9724325125E-06
       926.3498748473      -17.3361982000       -1.5938183359    7.5541222231E-05    8.0586566175E-05   -5.0453439447E-06
       926.4498958473      -17.2361772000       -1.5855612795    7.6517544119E-05    8.1634479901E-05   -5.1169357824E-06
       926.5499168473      -17.1361562000       -1.5772609976    7.7520341917E-05    8.2707702681E-05   -5.1873607640E-06
       926.6499378473      -17.0361352000       -1.5689168039    7.8546315311E-05    8.3807240185E-05   -5.2609248738E-06
       926.7499588473      -16.9361142000       -1.5605279261    7.9588328551E-05    8.4934078330E-05   -5.3457497792E-06
       926.8499798473      -16.8360932000       -1.5520937081    8.0646953503E-05    8.6089446589E-05   -5.4424930858E-06
       926.9500008473      -16.7360722000       -1.5436135445    8.1731603108E-05    8.7274410343E-05   -5.5428072355E-06
       927.0500218473      -16.6360512000       -1.5350863966    8.2849490535E-05    8.8490441451E-05   -5.6409509161E-06
       927.1500428473      -16.5360302000       -1.5265117560    8.4003361916E-05    8.9738965501E-05   -5.7356035845E-06
       927.2500638473      -16.4360092000       -1.5178886074    8.5195742154E-05    9.1021866597E-05   -5.8261244428E-06
       927.3500848473      -16.3359882000       -1.5092161899    8.6427690176E-05    9.2340755688E-05   -5.9130655117E-06
       927.4501058473      -16.2359672000       -1.5004936492    8.7699734479E-05    9.3697176558E-05   -5.9974420797E-06
       927.5501268473      -16.1359462000       -1.4917200346    8.9002691510E-05    9.5091664870E-05   -6.0889733593E-06
       927.6501478473      -16.0359252000       -1.4828946550    9.0333264493E-05    9.6524814144E-05   -6.1915496505E-06
       927.7501688473      -15.9359042000       -1.4740162917    9.1693394984E-05    9.7997476818E-05   -6.3040818345E-06
       927.8501898473      -15.8358832000       -1.4650841994    9.3089000587E-05    9.9511424347E-05   -6.4224237596E-06
       927.9502108473      -15.7358622000       -1.4560973164    9.4525494240E-05    1.0106847391E-04   -6.5429796665E-06
       928.0502318473      -15.6358412000       -1.4470546216    9.6007493186E-05    1.0267084882E-04   -6.6633556333E-06
       928.1502528473      -15.5358202000       -1.4379550623    9.7538697928E-05    1.0432089468E-04   -6.7821967478E-06
       928.2502738473      -15.4357992000       -1.4287974775    9.9122566238E-05    1.0602101763E-04   -6.8984513916E-06
       928.3502948473      -15.3357782000       -1.4195808942    1.0076239297E-04    1.0777382350E-04   -7.0114305322E-06
       928.4503158473      -15.2357572000       -1.4103041556    1.0246166081E-04    1.0958211405E-04   -7.1204532374E-06
       928.5503368473      -15.1357362000       -1.4009658389    1.0422416428E-04    1.1144888496E-04   -7.2247206813E-06
       928.6503578473      -15.0357152000       -1.3915649338    1.0605382819E-04    1.1337729637E-04   -7.3234681805E-06
       928.7503788473      -14.9356942000       -1.3821000862    1.0795507779E-04    1.1537080330E-04   -7.4157255021E-06
       928.8503998473      -14.8356732000       -1.3725699733    1.0993256753E-04    1.1743312768E-04   -7.5005601493E-06
       928.9504208473      -14.7356522000       -1.3629732260    1.1199128646E-04    1.1956814511E-04   -7.5768586485E-06
       929.0504418473      -14.6356312000       -1.3533084268    1.1413695513E-04    1.2178032160E-04   -7.6433664694E-06
       929.1504628473      -14.5356102000       -1.3435740279    1.1637564075E-04    1.2407430928E-04   -7.6986685275E-06
       929.2504838473      -14.4355892000       -1.3337687049    1.1871453781E-04    1.2645535751E-04   -7.7408196976E-06
       929.3505048473      -14.3355682000       -1.3238907211    1.2116182416E-04    1.2892892886E-04   -7.7671047021E-06
       929.4505258473      -14.2355472000       -1.3139385188    1.2372769805E-04    1.3150128411E-04   -7.7735860545E-06
       929.5505468473      -14.1355262000       -1.3039102353    1.2642477872E-04    1.3417929132E-04   -7.7545125948E-06
       929.6505678473      -14.0355052000       -1.2938042659    1.2926882317E-04    1.3697051162E-04   -7.7016884558E-06
       929.7505888473      -13.9354842000       -1.2836187759    1.3227976851E-04    1.3988336314E-04   -7.6035946257E-06
       929.8506098473      -13.8354632000       -1.2733518569    1.3548321241E-04    1.4292716353E-04   -7.4439511136E-06
       929.9506308473      -13.7354422000       -1.2630013547    1.3891214645E-04    1.4611245153E-04   -7.2003050868E-06
       930.0506518473      -13.6354212000       -1.2525654945    1.4260925684E-04    1.4945114039E-04   -6.8418835515E-06
       930.1506728473      -13.5354002000       -1.2420418678    1.4663149607E-04    1.5295682746E-04   -6.3253313831E-06
       930.2506938473      -13.4353792000       -1.2314282676    1.5105151442E-04    1.5664387454E-04   -5.5923601214E-06
       930.3507148473      -13.3353582000       -1.2207223907    1.5596588915E-04    1.6053141576E-04   -4.5655266125E-06
       930.4507358473      -13.2353372000       -1.2099218755    1.6149067593E-04    1.6463904572E-04   -3.1483697916E-06
       930.5507568473      -13.1353162000       -1.1990239871    1.6774412307E-04    1.6899012282E-04   -1.2459997477E-06
       930.6507778473      -13.0352952000       -1.1880261803    1.7478567907E-04    1.7361272739E-04    1.1729516796E-06
       930.7507988473      -12.9352742000       -1.1769256086    1.8248393041E-04    1.7853925929E-04    3.9446711222E-06
       930.8508198473      -12.8352532000       -1.1657192909    1.9038491963E-04    1.8380909666E-04    6.5758229651E-06
       930.9508408473      -12.7352322000       -1.1544042857    1.9790014967E-04    1.8946831343E-04    8.4318362372E-06
       931.0508618473      -12.6352112000       -1.1429772256    2.0510431367E-04    1.9557506362E-04    9.5292500557E-06
       931.1508828473      -12.5351902000       -1.1314346683    2.1310605524E-04    2.0219768996E-04    1.0908365273E-05
       931.2509038473      -12.4351692000       -1.1197731848    2.2305532485E-04    2.0942373177E-04    1.3631593080E-05
       931.3509248473      -12.3351482000       -1.1079890681    2.3520384285E-04    2.1736163865E-04    1.7842204202E-05
       931.4509458473      -12.2351272000       -1.0960782173    2.4852487535E-04    2.2614764136E-04    2.2377233987E-05
       931.5509668473      -12.1351062000       -1.0840364548    2.6076834076E-04    2.3595943725E-04    2.4808903514E-05
       931.6509878473      -12.0350852000       -1.0718594677    2.7042226906E-04    2.4702578221E-04    2.3396486854E-05
       931.7510088473      -11.9350642000       -1.0595425437    2.7901867829E-04    2.5964634520E-04    1.9372333086E-05
       931.8510298473      -11.8350432000       -1.0470807952    2.8900564706E-04    2.7421835216E-04    1.4787294903E-05
       931.9510508473      -11.7350222000       -1.0344687825    3.0056649221E-04    2.9127096499E-04    9.2955272206E-06
       932.0510718473      -11.6350012000       -1.0217012016    3.1276185044E-04    3.1150734992E-04    1.2545005224E-06
       932.1510928473      -11.5349802000       -1.0087719872    3.2571522972E-04    3.3584321178E-04   -1.0127982056E-05
       932.2511138473      -11.4349592000       -0.9956750031    3.3949174567E-04    3.6543384752E-04   -2.5942101851E-05
       932.3511348473      -11.3349382000       -0.9824033770    3.5451102734E-04    4.0159655681E-04   -4.7085529467E-05
       932.4511558473      -11.2349172000       -0.9689499876    3.7250458025E-04    4.4554506295E-04   -7.3040482696E-05
       932.5511768473      -11.1348962000       -0.9553071000    3.9528321629E-04    4.9765324516E-04   -1.0237002888E-04
       932.6511978473      -11.0348752000       -0.9414666175    4.2208934165E-04    5.5641967666E-04   -1.3433033500E-04
       932.7512188473      -10.9348542000       -0.9274195501    4.4785890385E-04    6.1718987980E-04   -1.6933097595E-04
       932.8512398473      -10.8348332000       -0.9131564516    4.6522454519E-04    6.7144387887E-04   -2.0621933368E-04
       932.9512608473      -10.7348122000       -0.8986669472    4.6936088377E-04    7.0793798706E-04   -2.3857710329E-04
       933.0512818473      -10.6347912000       -0.8839400236    4.6437848054E-04    7.1830794508E-04   -2.5392946454E-04
       933.1513028473      -10.5347702000       -0.8689635485    4.6388314577E-04    7.0395023576E-04   -2.4006708999E-04
       933.2513238473      -10.4347492000       -0.8537243887    4.7862255592E-04    6.7524156599E-04   -1.9661901006E-04
       933.3513448473      -10.3347282000       -0.8382081536    5.0485878359E-04    6.4384569117E-04   -1.3898690758E-04
       933.4513658473      -10.2347072000       -0.8223992899    5.3227268495E-04    6.1724649594E-04   -8.4973810996E-05
       933.5513868473      -10.1346862000       -0.8062805190    5.5774411356E-04    5.9852062137E-04   -4.0776507808E-05
       933.6514078473      -10.0346652000       -0.7898328338    5.8268687334E-04    5.8814606598E-04   -5.4591926367E-06
       933.7514288473       -9.9346442000       -0.7730353088    6.0803448825E-04    5.8553017030E-04    2.2504317950E-05
       933.8514498473       -9.8346232000       -0.7558645506    6.3582774617E-04    5.8985973318E-04    4.5968012990E-05
       933.9514708473       -9.7346022000       -0.7382946263    6.6791523558E-04    6.0044624694E-04    6.7468988630E-05
       934.0514918473       -9.6345812000       -0.7202961789    7.0078825655E-04    6.1682910377E-04    8.3959152779E-05
       934.1515128473       -9.5345602000       -0.7018363546    7.2600870921E-04    6.3881512620E-04    8.7193583010E-05
       934.2515338473       -9.4345392000       -0.6828776601    7.3898035543E-04    6.6646143234E-04    7.2518923098E-05
       934.3515548473       -9.3345182000       -0.6633773653    7.4449155350E-04    7.0007011204E-04    4.4421441461E-05
       934.4515758473       -9.2344972000       -0.6432862805    7.5373798181E-04    7.4020788859E-04    1.3530093223E-05
       934.5515968473       -9.1344762000       -0.6225471029    7.7476598372E-04    7.8773433389E-04   -1.2968350168E-05
       934.6516178473       -9.0344552000       -0.6010927761    8.0970939096E-04    8.4386761657E-04   -3.4158225612E-05
       934.7516388473       -8.9344342000       -0.5788438323    8.5868021066E-04    9.1028234719E-04   -5.1602136528E-05
       934.8516598473       -8.8344132000       -0.5557048127    9.2227160268E-04    9.8926569928E-04   -6.6994096598E-05
       934.9516808473       -8.7343922000       -0.5315594938    1.0022840586E-03    1.0839537080E-03   -8.1669649489E-05
       935.0517018473       -8.6343712000       -0.5062639418    1.1020045112E-03    1.1987058343E-03   -9.6701323156E-05
       935.1517228473       -8.5343502000       -0.4796361213    1.2266128647E-03    1.3396831040E-03   -1.1307023927E-04
       935.2517438473       -8.4343292000       -0.4514404636    1.3839509617E-03    1.5157915133E-03   -1.3184055169E-04
       935.3517648473       -8.3343082000       -0.4213622379    1.5858607395E-03    1.7402070668E-03   -1.5434632725E-04
       935.4517858473       -8.2342872000       -0.3889650441    1.8504445007E-03    2.0328855688E-03   -1.8244106811E-04
       935.5518068473       -8.1342662000       -0.3536120409    2.2056786728E-03    2.4245394133E-03   -2.1886074043E-04
       935.6518278473       -8.0342452000       -0.3143073849    2.6943737895E-03    2.9620747775E-03   -2.6770098794E-04
       935.7518488473       -7.9342242000       -0.2693265592    3.3773844194E-03    3.7121111062E-03   -3.3472668677E-04
       935.8518698473       -7.8342032000       -0.2151382010    4.3212072027E-03    4.7474110531E-03   -4.2620385036E-04
       935.9518908473       -7.7341822000       -0.1415348210    5.5408271768E-03    6.0843237964E-03   -5.4349661961E-04
       936.0282128473       -7.6578602000        0.0000000000    6.5854154313E-03    7.2286078884E-03   -6.4319245709E-04
       936.1519328473       -7.5341402000        0.1802014921    8.2105545145E-03    8.9932704979E-03   -7.8271598341E-04
       936.2519538473       -7.4341192000        0.2423322398    9.2168127653E-03    1.0078192526E-02   -8.6137976109E-04
       936.3519748473       -7.3340982000        0.2915085895    9.8894965326E-03    1.0799889298E-02   -9.1039276548E-04
       936.4519958473       -7.2340772000        0.3335110309    1.0300421275E-02    1.1236892721E-02   -9.3647144675E-04
       936.5520168473       -7.1340562000        0.3707855774    1.0529539400E-02    1.1478285194E-02   -9.4874579388E-04
       936.6520378473       -7.0340352000        0.4046409368    1.0635176161E-02    1.1590226024E-02   -9.5504986244E-04
       936.7520588473       -6.9340142000        0.4358745435    1.0656284685E-02    1.1617875263E-02   -9.6159057783E-04
       936.8520798473       -6.8339932000        0.4650150116    1.0616988286E-02    1.1590153746E-02   -9.7316545995E-04
       936.9521008473       -6.7339722000        0.4924340474    1.0532085474E-02    1.1525472253E-02   -9.9338677893E-04
       937.0521218473       -6.6339512000        0.5184049199    1.0411743079E-02    1.1436510766E-02   -1.0247676871E-03
       937.1521428473       -6.5339302000        0.5431352972    1.0263748674E-02    1.1332566165E-02   -1.0688174915E-03
       937.2521638473       -6.4339092000        0.5667877213    1.0090876821E-02    1.1217003466E-02   -1.1261266450E-03
       937.3521848473       -6.3338882000        0.5894918470    9.8997547968E-03    1.1096179142E-02   -1.1964243454E-03
       937.4522058473       -6.2338672000        0.6113534011    9.6933226178E-03    1.0972026748E-02   -1.2787041304E-03
       937.5522268473       -6.1338462000        0.6324597834    9.4749866138E-03    1.0846452630E-02   -1.3714660159E-03
       937.6522478473       -6.0338252000        0.6528841558    9.2490341043E-03    1.0721602900E-02   -1.4725687960E-03
       937.7522688473       -5.9338042000        0.6726886632    9.0172174946E-03    1.0597046946E-02   -1.5798294518E-03
       937.8522898473       -5.8337832000        0.6919265911    8.7841750711E-03    1.0474913917E-02   -1.6907388460E-03
       937.9523108473       -5.7337622000        0.7106438800    8.5530619496E-03    1.0355985800E-02   -1.8029238504E-03
       938.0523318473       -5.6337412000        0.7288806768    8.3246481833E-03    1.0238767969E-02   -1.9141197859E-03
       938.1523528473       -5.5337202000        0.7466722245    8.1036267436E-03    1.0125547803E-02   -2.0219210594E-03
       938.2523738473       -5.4336992000        0.7640495583    7.8898672380E-03    1.0014429318E-02   -2.1245620801E-03
       938.3523948473       -5.3336782000        0.7810403943    7.6873851901E-03    9.9073716476E-03   -2.2199864575E-03
       938.4524158473       -5.2336572000        0.7976693640    7.4973186783E-03    9.8042091662E-03   -2.3068904879E-03
       938.5524368473       -5.1336362000        0.8139587116    7.3198792069E-03    9.7036723641E-03   -2.3837931571E-03
       938.6524578473       -5.0336152000        0.8299283709    7.1568198387E-03    9.6064062579E-03   -2.4495864192E-03
