# # Once                                                         FEFF 10.0.0 
# # POT  SCF  60  4.0000   0, NO core-hole, AFOLP (folp(0)= 1.150)
# # Abs   Z=29 Rmt= 1.362 Rnm= 1.399 L3 shell
# #   RGRID 0.0100
# # Pot 1 Z=29 Rmt= 1.362 Rnm= 1.399
# # Gam_ch=5.960E-01 H-L exch Vi= 9.380E-03 Vr=-9.206E-02
# # Mu=-7.513E+00eV kf=2.017E+00 Vint=-1.631E+01eV Rs_int= 1.798
# FMS rfms= 8.0000
# # PATH  Rmax=-1.000,  Keep_limit= 0.00, Heap_limit 0.00  Pwcrit= 2.50%
#  S02=1.000  Temp=   0.00  Debye_temp=   0.00  Global_sig2= 0.00000
#  Energy zero shift, vr, vi    0.00000E+00   0.00000E+00
#  Curved wave amplitude ratio filter   4.000%
#     file         sig2 tot  cw amp ratio   deg  nlegs   reff  inp sig2
#     0/   0 paths used
#  xsedge+ 50, used to normalize mu           1.0000E+00
#  -----------------------------------------------------------------------
#  omega    e    k    mu    mu0     chi     @#
       883.8964992117      -59.6832317000       -3.7036839509    9.3690875402E-06    9.5449665235E-06   -1.7587898328E-07
       893.8964992117      -49.6832317000       -3.3305542248    1.2498088031E-05    1.2750957498E-05   -2.5286946642E-07
       903.8964992117      -39.6832317000       -2.9099673164    1.7866164748E-05    1.8258162264E-05   -3.9199751608E-07
       913.8964992117      -29.6832317000       -2.4172765652    2.8856395225E-05    2.9534031931E-05   -6.7763670668E-07
       915.3964992117      -28.1832317000       -2.3344217014    3.1521002999E-05    3.2265094490E-05   -7.4409149079E-07
       916.8964992117      -26.6832317000       -2.2485154356    3.4611622569E-05    3.5431022864E-05   -8.1940029465E-07
       918.3964992117      -25.1832317000       -2.1591940799    3.8520236195E-05    3.9423845313E-05   -9.0360911802E-07
       919.8964992117      -23.6832317000       -2.0660146381    4.3139918698E-05    4.4137012431E-05   -9.9709373356E-07
       921.3964992117      -22.1832317000       -1.9684294045    4.8859136923E-05    4.9956179324E-05   -1.0970424015E-06
       922.8964992117      -20.6832317000       -1.8657470203    5.6130286292E-05    5.7325164682E-05   -1.1948783901E-06
       923.8964992117      -19.6832317000       -1.7940300737    6.2184380644E-05    6.3432620147E-05   -1.2482395032E-06
       923.9996272117      -19.5801037000       -1.7864702459    6.2877898278E-05    6.4130494981E-05   -1.2525967028E-06
       924.1027552117      -19.4769757000       -1.7788783507    6.3586032394E-05    6.4842690750E-05   -1.2566583557E-06
       924.2058832117      -19.3738477000       -1.7712538556    6.4309209934E-05    6.5569607593E-05   -1.2603976589E-06
       924.3090112117      -19.2707197000       -1.7635963981    6.5047988865E-05    6.6311775675E-05   -1.2637868093E-06
       924.3964992117      -19.1832317000       -1.7570741495    6.5687311829E-05    6.6953674888E-05   -1.2663630590E-06
       924.4121392117      -19.1675917000       -1.7559056682    6.5802820111E-05    6.7069611929E-05   -1.2667918176E-06
       924.5152672117      -19.0644637000       -1.7481809223    6.6574320984E-05    6.7843703070E-05   -1.2693820855E-06
       924.6183952117      -18.9613357000       -1.7404220132    6.7362967782E-05    6.8634486649E-05   -1.2715188670E-06
       924.7215232117      -18.8582077000       -1.7326283593    6.8169354318E-05    6.9442515818E-05   -1.2731614998E-06
       924.8246512117      -18.7550797000       -1.7247994277    6.8994102025E-05    7.0268366317E-05   -1.2742642925E-06
       924.9277792117      -18.6519517000       -1.7169349218    6.9837973786E-05    7.1112751366E-05   -1.2747775798E-06
       925.0309072117      -18.5488237000       -1.7090341638    7.0701459668E-05    7.1976107059E-05   -1.2746473910E-06
       925.1340352117      -18.4456957000       -1.7010966484    7.1585472623E-05    7.2859274571E-05   -1.2738019480E-06
       925.2371632117      -18.3425677000       -1.6931218588    7.2490678052E-05    7.3762858458E-05   -1.2721804053E-06
       925.3402912117      -18.2394397000       -1.6851095184    7.3417913655E-05    7.4687607121E-05   -1.2696934659E-06
       925.4434192117      -18.1363117000       -1.6770588350    7.4368060829E-05    7.5634301026E-05   -1.2662401971E-06
       925.5465472117      -18.0331837000       -1.6689692539    7.5342039202E-05    7.6603735511E-05   -1.2616963098E-06
       925.6496752117      -17.9300557000       -1.6608402707    7.6340768896E-05    7.7596685031E-05   -1.2559161354E-06
       925.7528032117      -17.8269277000       -1.6526714328    7.7365485586E-05    7.8614171510E-05   -1.2486859240E-06
       925.8559312117      -17.7237997000       -1.6444619521    7.8417351499E-05    7.9657105715E-05   -1.2397542159E-06
       925.9590592117      -17.6206717000       -1.6362112169    7.9497650555E-05    8.0726365582E-05   -1.2287150278E-06
       926.0621872117      -17.5175437000       -1.6279186653    8.0608153457E-05    8.1823123551E-05   -1.2149700948E-06
       926.1653152117      -17.4144157000       -1.6195837206    8.1750708477E-05    8.2948430009E-05   -1.1977215324E-06
       926.2684432117      -17.3112877000       -1.6112056589    8.2927689242E-05    8.4103541244E-05   -1.1758520024E-06
       926.3715712117      -17.2081597000       -1.6027837376    8.4140701969E-05    8.5289617576E-05   -1.1489156072E-06
       926.4746992117      -17.1050317000       -1.5943173952    8.5388643268E-05    8.6508033239E-05   -1.1193899707E-06
       926.5778272117      -17.0019037000       -1.5858058532    8.6665265689E-05    8.7760304753E-05   -1.0950390639E-06
       926.6809552117      -16.8987757000       -1.5772482447    8.7968341371E-05    8.9047846320E-05   -1.0795049496E-06
       926.7840832117      -16.7956477000       -1.5686440873    8.9306858702E-05    9.0372416952E-05   -1.0655582496E-06
       926.8872112117      -16.6925197000       -1.5599924743    9.0690375967E-05    9.1735991988E-05   -1.0456160215E-06
       926.9903392117      -16.5893917000       -1.5512926803    9.2123170508E-05    9.3140442596E-05   -1.0172720872E-06
       927.0934672117      -16.4862637000       -1.5425436141    9.3609693569E-05    9.4588313361E-05   -9.7861979159E-07
       927.1965952117      -16.3831357000       -1.5337447795    9.5152107186E-05    9.6082119253E-05   -9.3001206791E-07
       927.2997232117      -16.2800077000       -1.5248951753    9.6749899130E-05    9.7623948270E-05   -8.7404914048E-07
       927.4028512117      -16.1768797000       -1.5159938424    9.8398210906E-05    9.9215526099E-05   -8.1731519389E-07
       927.5059792117      -16.0737517000       -1.5070400758    1.0009268332E-04    1.0085806994E-04   -7.6538661542E-07
       927.6091072117      -15.9706237000       -1.4980326513    1.0183606465E-04    1.0255347722E-04   -7.1741256500E-07
       927.7122352117      -15.8674957000       -1.4889708095    1.0363614305E-04    1.0430420418E-04   -6.6806112836E-07
       927.8153632117      -15.7643677000       -1.4798534789    1.0550070548E-04    1.0611349805E-04   -6.1279256508E-07
       927.9184912117      -15.6612397000       -1.4706795549    1.0743636255E-04    1.0798483203E-04   -5.4846948721E-07
       928.0216192117      -15.5581117000       -1.4614481176    1.0944887723E-04    1.0992176859E-04   -4.7289135429E-07
       928.1247472117      -15.4549837000       -1.4521579235    1.1154417250E-04    1.1192856473E-04   -3.8439222700E-07
       928.2278752117      -15.3518557000       -1.4428079851    1.1372816078E-04    1.1400949445E-04   -2.8133366221E-07
       928.3310032117      -15.2487277000       -1.4333969849    1.1600720561E-04    1.1616946042E-04   -1.6225481221E-07
       928.4341312117      -15.1455997000       -1.4239237868    1.1838815591E-04    1.1841347914E-04   -2.5323228368E-08
       928.5372592117      -15.0424717000       -1.4143872164    1.2087864822E-04    1.2074735980E-04    1.3128842768E-07
       928.6403872117      -14.9393437000       -1.4047859072    1.2348695152E-04    1.2317717710E-04    3.0977441108E-07
       928.7435152117      -14.8362157000       -1.3951185227    1.2622222922E-04    1.2570978983E-04    5.1243939748E-07
       928.8466432117      -14.7330877000       -1.3853836795    1.2909452706E-04    1.2835273513E-04    7.4179193386E-07
       928.9497712117      -14.6299597000       -1.3755799456    1.3211511856E-04    1.3111431414E-04    1.0008044194E-06
       929.0528992117      -14.5268317000       -1.3657057593    1.3529669516E-04    1.3400370307E-04    1.2929920970E-06
       929.1560272117      -14.4237037000       -1.3557597384    1.3865402275E-04    1.3703119757E-04    1.6228251814E-06
       929.2591552117      -14.3205757000       -1.3457401319    1.4220458719E-04    1.4020835447E-04    1.9962327202E-06
       929.3622832117      -14.2174477000       -1.3356454431    1.4596946428E-04    1.4354801619E-04    2.4214480956E-06
       929.4654112117      -14.1143197000       -1.3254738362    1.4997467587E-04    1.4706486978E-04    2.9098060917E-06
       929.5685392117      -14.0111917000       -1.3152235671    1.5425250119E-04    1.5077548562E-04    3.4770155757E-06
       929.6716672117      -13.9080637000       -1.3048927818    1.5884364230E-04    1.5469880762E-04    4.1448346730E-06
       929.7747952117      -13.8049357000       -1.2944795529    1.6379952001E-04    1.5885633659E-04    4.9431834257E-06
       929.8779232117      -13.7018077000       -1.2839819158    1.6918730242E-04    1.6327333976E-04    5.9139626663E-06
       929.9810512117      -13.5986797000       -1.2733976994    1.7509244413E-04    1.6797856578E-04    7.1138783552E-06
       930.0841792117      -13.4955517000       -1.2627247266    1.8162658900E-04    1.7300497225E-04    8.6216167469E-06
       930.1873072117      -13.3924237000       -1.2519608550    1.8893436140E-04    1.7839431383E-04    1.0540047568E-05
       930.2904352117      -13.2892957000       -1.2411035908    1.9718325173E-04    1.8419131821E-04    1.2991933524E-05
       930.3935632117      -13.1861677000       -1.2301505046    2.0653680982E-04    1.9045398741E-04    1.6082822412E-05
       930.4966912117      -13.0830397000       -1.2190990572    2.1704306699E-04    1.9724864604E-04    1.9794420950E-05
       930.5998192117      -12.9799117000       -1.2079464607    2.2845752421E-04    2.0465878526E-04    2.3798738953E-05
       930.7029472117      -12.8767837000       -1.1966899317    2.4018767152E-04    2.1278336834E-04    2.7404303176E-05
       930.8060752117      -12.7736557000       -1.1853265990    2.5190056180E-04    2.2174761567E-04    3.0152946133E-05
       930.9092032117      -12.6705277000       -1.1738531342    2.6445513315E-04    2.3170856427E-04    3.2746568886E-05
       931.0123312117      -12.5673997000       -1.1622665505    2.7941877232E-04    2.4286368280E-04    3.6555089515E-05
       931.1154592117      -12.4642717000       -1.1505631528    2.9766821659E-04    2.5546641681E-04    4.2201799785E-05
       931.2185872117      -12.3611437000       -1.1387394799    3.1863147174E-04    2.6984647285E-04    4.8784998887E-05
       931.3217152117      -12.2580157000       -1.1267919342    3.4011632078E-04    2.8643753018E-04    5.3678790600E-05
       931.4248432117      -12.1548877000       -1.1147161510    3.6008493784E-04    3.0581706174E-04    5.4267876101E-05
       931.5279712117      -12.0517597000       -1.1025081579    3.7989254943E-04    3.2876385473E-04    5.1128694699E-05
       931.6310992117      -11.9486317000       -1.0901634643    4.0279366428E-04    3.5634467625E-04    4.6448988027E-05
       931.7342272117      -11.8455037000       -1.0776773727    4.2979679464E-04    3.9002441327E-04    3.9772381373E-05
       931.8373552117      -11.7423757000       -1.0650449600    4.6046039569E-04    4.3183123019E-04    2.8629165498E-05
       931.9404832117      -11.6392477000       -1.0522608553    4.9559674152E-04    4.8454120247E-04    1.1055539052E-05
       932.0436112117      -11.5361197000       -1.0393195634    5.3614186635E-04    5.5185623632E-04   -1.5714369976E-05
       932.1467392117      -11.4329917000       -1.0262149820    5.8409948794E-04    6.3840203524E-04   -5.4302547301E-05
       932.2498672117      -11.3298637000       -1.0129410362    6.4386675611E-04    7.4909591505E-04   -1.0522915894E-04
       932.3529952117      -11.2267357000       -0.9994906589    7.1950199114E-04    8.8730358317E-04   -1.6780159203E-04
       932.4561232117      -11.1236077000       -0.9858568986    8.0841726753E-04    1.0513068965E-03   -2.4288962900E-04
       932.5592512117      -11.0204797000       -0.9720319293    8.9776165465E-04    1.2294593294E-03   -3.3169767471E-04
       932.6623792117      -10.9173517000       -0.9580073066    9.7004317902E-04    1.3958200102E-03   -4.2577683119E-04
       932.7655072117      -10.8142237000       -0.9437744682    1.0202355245E-03    1.5140767298E-03   -4.9384120532E-04
       932.8686352117      -10.7110957000       -0.9293236756    1.0754268649E-03    1.5583199958E-03   -4.8289313088E-04
       932.9717632117      -10.6079677000       -0.9146445401    1.1835948023E-03    1.5338929227E-03   -3.5029812045E-04
       933.0748912117      -10.5048397000       -0.8997259742    1.3624639167E-03    1.4703732533E-03   -1.0790933655E-04
       933.1780192117      -10.4017117000       -0.8845558035    1.5828261809E-03    1.3982784481E-03    1.8454773285E-04
       933.2811472117      -10.2985837000       -0.8691208836    1.8218620045E-03    1.3364579820E-03    4.8540402245E-04
       933.3842752117      -10.1954557000       -0.8534068808    2.0850648980E-03    1.2928617115E-03    7.9220318646E-04
       933.4874032117      -10.0923277000       -0.8373980207    2.3805246067E-03    1.2691701151E-03    1.1113544916E-03
       933.5905312017       -9.9891997100       -0.8210771212    2.7223053463E-03    1.2645298004E-03    1.4577755459E-03
       933.6936592017       -9.8860717100       -0.8044251569    3.1226125701E-03    1.2775415723E-03    1.8450709977E-03
       933.7967872017       -9.7829437100       -0.7874211243    3.5286809680E-03    1.3069821456E-03    2.2216988224E-03
       933.8999152017       -9.6798157100       -0.7700416662    3.7896737860E-03    1.3516995545E-03    2.4379742315E-03
       934.0030432017       -9.5766877100       -0.7522607982    3.7664657066E-03    1.4114804815E-03    2.3549852252E-03
       934.1061712017       -9.4735597100       -0.7340494232    3.4757923983E-03    1.4861467312E-03    1.9896456671E-03
       934.2092992017       -9.3704317100       -0.7153745149    3.1022126423E-03    1.5760948940E-03    1.5261177483E-03
       934.3124272017       -9.2673037100       -0.6961988489    2.8085834602E-03    1.6817334450E-03    1.1268500152E-03
       934.4155552017       -9.1641757100       -0.6764798430    2.6348947321E-03    1.8042236256E-03    8.3067110651E-04
       934.5186832017       -9.0610477100       -0.6561685749    2.5610396026E-03    1.9443022044E-03    6.1673739817E-04
       934.6218112017       -8.9579197100       -0.6352081072    2.5611951435E-03    2.1032030049E-03    4.5799213860E-04
       934.7249392017       -8.8547917100       -0.6135320150    2.6166463501E-03    2.2820474243E-03    3.3459892579E-04
       934.8280672017       -8.7516637100       -0.5910615034    2.7162084249E-03    2.4824586152E-03    2.3374980967E-04
       934.9311952017       -8.6485357100       -0.5677022707    2.8520887059E-03    2.7047079395E-03    1.4738076640E-04
       935.0343232017       -8.5454077100       -0.5433396810    3.0205213332E-03    2.9501360671E-03    7.0385266105E-05
       935.1374512017       -8.4422797100       -0.5178322150    3.2186333480E-03    3.2191323120E-03   -4.9896398117E-07
       935.2405792017       -8.3391517100       -0.4910014225    3.4441884869E-03    3.5115477820E-03   -6.7359295139E-05
       935.3437072017       -8.2360237100       -0.4626170673    3.6954519962E-03    3.8268614304E-03   -1.3140943422E-04
       935.4468352017       -8.1328957100       -0.4323733553    3.9702633064E-03    4.1635895973E-03   -1.9332629089E-04
       935.5499632017       -8.0297677100       -0.3998485785    4.2662941263E-03    4.5194631781E-03   -2.5316905178E-04
       935.6530912017       -7.9266397100       -0.3644325266    4.5808638762E-03    4.8915176149E-03   -3.1065373871E-04
       935.7562192017       -7.8235117100       -0.3251818473    4.9097170444E-03    5.2749849823E-03   -3.6526793785E-04
       935.8593472017       -7.7203837100       -0.2804913330    5.2492322033E-03    5.6656491494E-03   -4.1641694607E-04
       935.9624752017       -7.6172557100       -0.2271729853    5.5936015575E-03    6.0572828314E-03   -4.6368127392E-04
       936.0656032017       -7.5141277100       -0.1566516442    5.9378280736E-03    6.4445747535E-03   -5.0674667988E-04
       936.1590992017       -7.4206317100        0.0000000000    6.2461478379E-03    6.7882056702E-03   -5.4205783228E-04
       936.2718592017       -7.3078717100        0.1720346553    6.6066177000E-03    7.1875134177E-03   -5.8089571771E-04
       936.3749872017       -7.2047437100        0.2380414990    6.9193259202E-03    7.5333841494E-03   -6.1405822929E-04
       936.4781152017       -7.1016157100        0.2893640980    7.2076644802E-03    7.8544734936E-03   -6.4680901346E-04
       936.5812432017       -6.9984877100        0.3328654491    7.4660530749E-03    8.1474920407E-03   -6.8143896571E-04
       936.6843712017       -6.8953597100        0.3713047712    7.6902369946E-03    8.4104679373E-03   -7.2023094276E-04
       936.7874992017       -6.7922317100        0.4061220002    7.8754437306E-03    8.6410674691E-03   -7.6562373855E-04
       936.8906272017       -6.6891037100        0.4381813685    8.0191777281E-03    8.8387519536E-03   -8.1957422543E-04
       936.9937552017       -6.5859757100        0.4680499378    8.1214152427E-03    9.0048585810E-03   -8.8344333829E-04
       937.0968832017       -6.4828477100        0.4961235635    8.1806360324E-03    9.1386820783E-03   -9.5804604589E-04
       937.2000112017       -6.3797197100        0.5226915179    8.2008753193E-03    9.2442749516E-03   -1.0433996323E-03
       937.3031392017       -6.2765917100        0.5479728116    8.1843924230E-03    9.3231817298E-03   -1.1387893067E-03
       937.4062672017       -6.1734637100        0.5721381257    8.1351906610E-03    9.3779812254E-03   -1.2427905644E-03
       937.5093952017       -6.0703357100        0.5953233302    8.0585525177E-03    9.4121998020E-03   -1.3536472843E-03
       937.6125232017       -5.9672077100        0.6176387889    7.9579529991E-03    9.4271082141E-03   -1.4691552150E-03
       937.7156512017       -5.8640797100        0.6391756666    7.8396570223E-03    9.4267158023E-03   -1.5870587800E-03
       937.8187792017       -5.7609517100        0.6600101453    7.7081201910E-03    9.4127858972E-03   -1.7046657062E-03
       937.9219072017       -5.6578237100        0.6802067122    7.5675483190E-03    9.3876635350E-03   -1.8201152159E-03
       938.0250352017       -5.5546957100        0.6998207132    7.4226953911E-03    9.3533955067E-03   -1.9307001156E-03
       938.1281632017       -5.4515677100        0.7188997403    7.2769235596E-03    9.3117026351E-03   -2.0347790755E-03
       938.2312912017       -5.3484397100        0.7374853869    7.1335791341E-03    9.2639945731E-03   -2.1304154390E-03
       938.3344192017       -5.2453117100        0.7556139900    6.9953019142E-03    9.2113840135E-03   -2.2160820993E-03
       938.4375472017       -5.1421837100        0.7733177276    6.8652811735E-03    9.1557305280E-03   -2.2904493545E-03
       938.5406752017       -5.0390557100        0.7906251748    6.7452783807E-03    9.0976499340E-03   -2.3523715534E-03
       938.6438032017       -4.9359277100        0.8075617457    6.6367314290E-03    9.0375596462E-03   -2.4008282172E-03
       938.7469312017       -4.8327997100        0.8241504022    6.5416923239E-03    8.9766926786E-03   -2.4350003547E-03
