# # Once                                                         FEFF 10.0.0 
# # POT  SCF  60  4.0000   0, NO core-hole, AFOLP (folp(0)= 1.150)
# # Abs   Z=29 Rmt= 1.362 Rnm= 1.399 L3 shell
# #   RGRID 0.0100
# # Pot 1 Z=29 Rmt= 1.362 Rnm= 1.399
# # Gam_ch=5.960E-01 H-L exch Vi= 1.414E+00 Vr=-8.299E+00
# # Mu=-7.695E+00eV kf=2.229E+00 Vint=-1.697E+01eV Rs_int= 1.627
# FMS rfms= 8.0000
# # PATH  Rmax=-1.000,  Keep_limit= 0.00, Heap_limit 0.00  Pwcrit= 2.50%
#  S02=1.000  Temp=   0.00  Debye_temp=   0.00  Global_sig2= 0.00000
#  Energy zero shift, vr, vi    0.00000E+00   0.00000E+00
#  Curved wave amplitude ratio filter   4.000%
#     file         sig2 tot  cw amp ratio   deg  nlegs   reff  inp sig2
#     0/   0 paths used
#  xsedge+ 50, used to normalize mu           1.0000E+00
#  -----------------------------------------------------------------------
#  omega    e    k    mu    mu0     chi     @#
       875.2711837150      -68.4910309000       -4.2585375346    4.1902576316E-05    4.1955198613E-05   -5.2622297112E-08
       885.2711837150      -58.4910309000       -3.9383319526    5.7816503610E-05    5.7885903234E-05   -6.9399624666E-08
       895.2711837150      -48.4910309000       -3.5896761977    8.8692734958E-05    8.8785494023E-05   -9.2759065098E-08
       905.2711837150      -38.4910309000       -3.2032940376    1.6774782362E-04    1.6786185056E-04   -1.1402693713E-07
       906.7711837150      -36.9910309000       -3.1412404204    1.9059744202E-04    1.9070863525E-04   -1.1119323160E-07
       908.2711837150      -35.4910309000       -3.0779357309    2.1932654490E-04    2.1942810784E-04   -1.0156294465E-07
       909.7711837150      -33.9910309000       -3.0133014034    2.5624383626E-04    2.5632228529E-04   -7.8449031658E-08
       911.2711837150      -32.4910309000       -2.9472499609    3.0492522133E-04    3.0495285061E-04   -2.7629281987E-08
       912.7711837150      -30.9910309000       -2.8796840396    3.7114026815E-04    3.7105744440E-04    8.2823750784E-08
       914.2711837150      -29.4910309000       -2.8104942633    4.6464354834E-04    4.6431433936E-04    3.2920898535E-07
       915.2711837150      -28.4910309000       -2.7634053860    5.5026837571E-04    5.4961227244E-04    6.5610326908E-07
       915.7711837150      -27.9910309000       -2.7395575993    6.0299774307E-04    6.0208938916E-04    9.0835390759E-07
       915.8425407150      -27.9196739000       -2.7361373168    6.1118510701E-04    6.1023396625E-04    9.5114075670E-07
       916.4138977150      -27.3483169000       -2.7085945903    6.8378060039E-04    6.8240803144E-04    1.3725689449E-06
       916.9852547150      -26.7769599000       -2.6807685819    7.7146283584E-04    7.6947822894E-04    1.9846069056E-06
       917.5566117150      -26.2056029000       -2.6526509386    8.7854539777E-04    8.7565844705E-04    2.8869507194E-06
       918.1279687150      -25.6342459000       -2.6242321239    1.0107588312E-03    1.0065211977E-03    4.2376334492E-06
       918.6993257150      -25.0628889000       -2.5955021630    1.1763660366E-03    1.1700698343E-03    6.2962023223E-06
       919.2706827150      -24.4915319000       -2.5664505236    1.3874312828E-03    1.3779338658E-03    9.4974169609E-06
       919.8420397150      -23.9201749000       -2.5370663232    1.6618009682E-03    1.6472191573E-03    1.4581810948E-05
       920.4133967150      -23.3488179000       -2.5073377846    2.0264743627E-03    2.0036524903E-03    2.2821872358E-05
       920.9847537150      -22.7774609000       -2.4772523393    2.5234425512E-03    2.4870558076E-03    3.6386743621E-05
       921.5561107150      -22.2061039000       -2.4467969959    3.2187456001E-03    3.1599966155E-03    5.8748984636E-05
       922.1274677150      -21.6347469000       -2.4159580301    4.2170529339E-03    4.1228308670E-03    9.4222066951E-05
       922.6988247150      -21.0633899000       -2.3847201126    5.6759163869E-03    5.5340219325E-03    1.4189445441E-04
       923.2701817150      -20.4920329000       -2.3530675357    7.7885147855E-03    7.6219704929E-03    1.6654429260E-04
       923.8415387150      -19.9206759000       -2.3209832430    1.0627442279E-02    1.0605699429E-02    2.1742849653E-05
       924.4128957150      -19.3493189000       -2.2884493554    1.3748701395E-02    1.4268070791E-02   -5.1936939581E-04
       924.9842527150      -18.7779619000       -2.2554461342    1.5951557996E-02    1.7072187052E-02   -1.1206290569E-03
       925.5556097150      -18.2066049000       -2.2219528578    1.5969225157E-02    1.6774445221E-02   -8.0522006475E-04
       926.1269667150      -17.6352479000       -2.1879467290    1.3719353021E-02    1.3691158459E-02    2.8194561444E-05
       926.6983237150      -17.0638909000       -2.1534038467    1.0561127404E-02    1.0154370130E-02    4.0675727360E-04
       927.2696807150      -16.4925339000       -2.1182975507    7.8074956808E-03    7.3949200652E-03    4.1257561554E-04
       927.8410377150      -15.9211769000       -2.0825996557    5.8232830374E-03    5.4904587472E-03    3.3282429019E-04
       928.4123947150      -15.3498199000       -2.0462791999    4.4718021731E-03    4.2087418951E-03    2.6306027795E-04
       928.9837517150      -14.7784629000       -2.0093022112    3.5511457657E-03    3.3379167873E-03    2.1322897840E-04
       929.5551087150      -14.2071059000       -1.9716320751    2.9136588454E-03    2.7351751741E-03    1.7848367127E-04
       930.1264657150      -13.6357489000       -1.9332277223    2.4638620949E-03    2.3098290634E-03    1.5403303148E-04
       930.6978227150      -13.0643919000       -1.8940449410    2.1411121404E-03    2.0050420191E-03    1.3607012132E-04
       931.2691797150      -12.4930349000       -1.8540343211    1.9064150148E-03    1.7845651727E-03    1.2184984205E-04
       931.8405367150      -11.9216779000       -1.8131410008    1.7346516936E-03    1.6247612428E-03    1.0989045080E-04
       932.4118937150      -11.3503209000       -1.7713037256    1.6092405474E-03    1.5095858173E-03    9.9654730097E-05
       932.9832507150      -10.7789639000       -1.7284542592    1.5192256088E-03    1.4283806848E-03    9.0844923985E-05
       933.5546077150      -10.2076069000       -1.6845149823    1.4565957304E-03    1.3734757966E-03    8.3119933817E-05
       934.1259647350       -9.6362498800       -1.6393985942    1.4159852503E-03    1.3394890616E-03    7.6496188647E-05
       934.6973217350       -9.0648928800       -1.5930049516    1.3943340600E-03    1.3224297544E-03    7.1904305596E-05
       935.2686787350       -8.4935358800       -1.5452189451    1.3906072966E-03    1.3194686653E-03    7.1138631356E-05
       935.2711437350       -8.4910708800       -1.5450095527    1.3906155478E-03    1.3194683210E-03    7.1147226722E-05
       936.7711437350       -6.9910708800       -1.4118612330    1.4604521805E-03    1.3654364731E-03    9.5015707452E-05
       938.2711437350       -5.4910708800       -1.2647725716    1.5906664636E-03    1.4697828995E-03    1.2088356417E-04
       939.7711437350       -3.9910708800       -1.0981563583    1.7386246243E-03    1.6178321743E-03    1.2079244995E-04
       941.2711437350       -2.4910708800       -0.9012462764    1.9264649917E-03    1.8017251202E-03    1.2473987142E-04
       942.7711437360       -0.9910708790       -0.6469485455    2.0971125727E-03    2.0156943668E-03    8.1418205911E-05
       944.3657837360        0.6035691210        0.0000000000    2.2304309989E-03    2.2706664322E-03   -4.0235433292E-05
       945.2711437350        1.5089291200        0.4874713470    2.3003342276E-03    2.4258378070E-03   -1.2550357937E-04
       945.7711437350        2.0089291200        0.6073404426    2.3407723455E-03    2.5143127743E-03   -1.7354042883E-04
       965.2711437150       21.5089291000        2.3424332320    5.9633974743E-03    5.5079896341E-03    4.5540784018E-04
       985.2711437150       41.5089291000        3.2766386131    5.9863414067E-03    6.2924439926E-03   -3.0610258599E-04
      1005.2711437150       61.5089291000        3.9982154117    5.9536635653E-03    6.0889175555E-03   -1.3525399018E-04
      1025.2711437150       81.5089291000        4.6081548915    6.3549727122E-03    5.7995696368E-03    5.5540307545E-04
      1045.2711436150      101.5089290000        5.1463051338    5.2490753339E-03    5.5411537104E-03   -2.9207837642E-04
      1065.2711436150      121.5089290000        5.6332780471    5.0977709978E-03    5.2881308903E-03   -1.9035989253E-04
