# # Once                                                         FEFF 10.0.0 
# # POT  SCF  60  4.0000   0, NO core-hole, AFOLP (folp(0)= 1.150)
# # Abs   Z=29 Rmt= 1.362 Rnm= 1.399 L3 shell
# #   RGRID 0.0100
# # Pot 1 Z=29 Rmt= 1.362 Rnm= 1.399
# # Gam_ch=5.960E-01 H-L exch Vi= 2.904E+00 Vr=-1.185E+00
# # Mu=-8.821E+00eV kf=2.258E+00 Vint=-1.695E+01eV Rs_int= 1.606
# FMS rfms= 8.0000
# # PATH  Rmax=-1.000,  Keep_limit= 0.00, Heap_limit 0.00  Pwcrit= 2.50%
#  S02=1.000  Temp=   0.00  Debye_temp=   0.00  Global_sig2= 0.00000
#  Energy zero shift, vr, vi    0.00000E+00   0.00000E+00
#  Curved wave amplitude ratio filter   4.000%
#     file         sig2 tot  cw amp ratio   deg  nlegs   reff  inp sig2
#     0/   0 paths used
#  xsedge+ 50, used to normalize mu           1.0000E+00
#  -----------------------------------------------------------------------
#  omega    e    k    mu    mu0     chi     @#
       874.1881373031      -70.7001842000       -4.0684356052    1.2810115152E-04    1.2812977751E-04   -2.8625988544E-08
       884.1881373031      -60.7001842000       -3.7319547977    1.8553679040E-04    1.8556747081E-04   -3.0680416240E-08
       894.1881373031      -50.7001842000       -3.3619640682    3.0181151563E-04    3.0183752881E-04   -2.6013178775E-08
       904.1881373031      -40.7001842000       -2.9458650231    6.0687720071E-04    6.0684329985E-04    3.3900866230E-08
       905.6881373031      -39.2001842000       -2.8782664434    6.9470534075E-04    6.9463700187E-04    6.8338876598E-08
       907.1881373031      -37.7001842000       -2.8090417503    8.0437365904E-04    8.0424844743E-04    1.2521161159E-07
       908.6881373031      -36.2001842000       -2.7380674555    9.4385591247E-04    9.4363351256E-04    2.2239990946E-07
       910.1881373031      -34.7001842000       -2.6652036274    1.1250359051E-03    1.1246413717E-03    3.9453345764E-07
       911.6881373031      -33.2001842000       -2.5902911441    1.3663392325E-03    1.3656282832E-03    7.1094928970E-07
       913.1881373031      -31.7001842000       -2.5131466426    1.6972489280E-03    1.6959332573E-03    1.3156706512E-06
       914.1881373031      -30.7001842000       -2.4603735074    1.9908074313E-03    1.9887875668E-03    2.0198645818E-06
       914.6881373031      -30.2001842000       -2.4335576902    2.1672164446E-03    2.1646985609E-03    2.5178837186E-06
       915.2562873031      -29.6320342000       -2.4027239359    2.3977033434E-03    2.3944528363E-03    3.2505071010E-06
       916.3244373031      -28.5638842000       -2.3436567216    2.9421415257E-03    2.9368153105E-03    5.3262151208E-06
       917.3925873031      -27.4957342000       -2.2830616491    3.6894564367E-03    3.6806028364E-03    8.8536002429E-06
       918.4607373031      -26.4275842000       -2.2208140422    4.7441534656E-03    4.7294045710E-03    1.4748894533E-05
       919.5288873031      -25.3594342000       -2.1567708218    6.2713025410E-03    6.2475096112E-03    2.3792929723E-05
       920.5970373031      -24.2912842000       -2.0907664787    8.5206154347E-03    8.4871599600E-03    3.3455474631E-05
       921.6651873031      -23.2231342000       -2.0226095546    1.1793450488E-02    1.1769005387E-02    2.4445101033E-05
       922.7333373031      -22.1549842000       -1.9520740445    1.6140627813E-02    1.6208696975E-02   -6.8069162515E-05
       923.8014873031      -21.0868342000       -1.8788927070    2.0486549057E-02    2.0777783070E-02   -2.9123401326E-04
       924.8696373031      -20.0186842000       -1.8027430582    2.2211883981E-02    2.2580382826E-02   -3.6849884549E-04
       925.9377873031      -18.9505342000       -1.7232315101    1.9874199717E-02    1.9977006411E-02   -1.0280669482E-04
       927.0059373031      -17.8823842000       -1.6398693099    1.5476259969E-02    1.5354834617E-02    1.2142535166E-04
       928.0740873031      -16.8142342000       -1.5520360402    1.1443771802E-02    1.1259464936E-02    1.8430686540E-04
       929.1422373031      -15.7460842000       -1.4589243937    8.5232860206E-03    8.3376260361E-03    1.8565998454E-04
       930.2103873031      -14.6779342000       -1.3594501425    6.5572167454E-03    6.3812199751E-03    1.7599677023E-04
       931.2785373031      -13.6097842000       -1.2520979220    5.2487757707E-03    5.0826490481E-03    1.6612672268E-04
       932.3466873031      -12.5416342000       -1.1346337863    4.3729286293E-03    4.2159532605E-03    1.5697536882E-04
       933.4148373031      -11.4734842000       -1.0035130021    3.7822236913E-03    3.6339690600E-03    1.4825463130E-04
       934.1881273031      -10.7001942000       -0.8967018493    3.4800105394E-03    3.3373098890E-03    1.4270065038E-04
       934.4829873031      -10.4053342000       -0.8524569560    3.3860189917E-03    3.2451080619E-03    1.4091092972E-04
       935.6881272831       -9.2001942200       -0.6406026666    3.1027275797E-03    2.9658840605E-03    1.3684351921E-04
       937.2516372831       -7.6366842200        0.0000000000    2.9262482499E-03    2.7855097517E-03    1.4073849823E-04
       938.6881272831       -6.2001942200        0.6140302195    2.8781067677E-03    2.7335740107E-03    1.4453275695E-04
       940.1881272831       -4.7001942200        0.8779154367    2.8941650616E-03    2.7577153894E-03    1.3644967218E-04
       941.6881272831       -3.2001942200        1.0790913078    2.9515085032E-03    2.8398965054E-03    1.1161199783E-04
       943.1881272831       -1.7001942200        1.2482549103    3.0227173878E-03    2.9651079408E-03    5.7609447026E-05
       944.1881272801       -0.7001942230        1.3492993289    3.0672429930E-03    3.0667911013E-03    4.5189172974E-07
       944.6881272801       -0.2001942230        1.3970836784    3.0884240458E-03    3.1220894380E-03   -3.3665392126E-05
       964.1881273031       19.2998058000        2.6589423355    5.6154372889E-03    5.4079073940E-03    2.0752989494E-04
       984.1881273031       39.2998058000        3.5098917677    6.0439601507E-03    6.1790571803E-03   -1.3509702958E-04
      1004.1881273031       59.2998058000        4.1915039361    5.9108510915E-03    6.0383926245E-03   -1.2754153304E-04
      1024.1881273031       79.2998058000        4.7768265591    6.1799996477E-03    5.7704780590E-03    4.0952158876E-04
      1044.1881273031       99.2998058000        5.2978709876    5.2796015492E-03    5.5207667912E-03   -2.4116524199E-04
      1064.1881275031      119.2998060000        5.7720710087    5.1045885261E-03    5.2740503887E-03   -1.6946186260E-04
