# # Once                                                         FEFF 10.0.0 
# # POT  SCF  60  4.0000   0, NO core-hole, AFOLP (folp(0)= 1.150)
# # Abs   Z=29 Rmt= 1.362 Rnm= 1.399 L3 shell
# #   RGRID 0.0100
# # Pot 1 Z=29 Rmt= 1.362 Rnm= 1.399
# # Gam_ch=5.960E-01 H-L exch Vi= 1.282E+00 Vr= 2.145E+00
# # Mu=-7.619E+00eV kf=2.012E+00 Vint=-1.628E+01eV Rs_int= 1.802
# FMS rfms= 8.0000
# # PATH  Rmax=-1.000,  Keep_limit= 0.00, Heap_limit 0.00  Pwcrit= 2.50%
#  S02=1.000  Temp=   0.00  Debye_temp=   0.00  Global_sig2= 0.00000
#  Energy zero shift, vr, vi    0.00000E+00   0.00000E+00
#  Curved wave amplitude ratio filter   4.000%
#     file         sig2 tot  cw amp ratio   deg  nlegs   reff  inp sig2
#     0/   0 paths used
#  xsedge+ 50, used to normalize mu           1.0000E+00
#  -----------------------------------------------------------------------
#  omega    e    k    mu    mu0     chi     @#
       884.1495496734      -59.5366812000       -3.6143744223    9.9017720192E-05    6.4823821201E-05    3.4193898991E-05
       894.1495496734      -49.5366812000       -3.2309472221    1.4343679990E-04    8.9919356108E-05    5.3517443790E-05
       904.1495496734      -39.5366812000       -2.7954136436    2.3187697453E-04    1.3652832755E-04    9.5348646984E-05
       914.1495496734      -29.5366812000       -2.2780813199    4.6003068610E-04    2.4505039594E-04    2.1498029016E-04
       915.6495496734      -28.0366812000       -2.1899660921    5.2532989127E-04    2.7405005829E-04    2.5127983298E-04
       917.1495496734      -26.5366812000       -2.0981538901    6.0718509004E-04    3.0962511500E-04    2.9755997504E-04
       918.6495496734      -25.0366812000       -2.0021355426    7.1199020962E-04    3.5416560446E-04    3.5782460516E-04
       920.1495496734      -23.5366812000       -1.9012743466    8.4884819628E-04    4.1055585755E-04    4.3829233873E-04
       921.6495496734      -22.0366812000       -1.7947540750    1.0330228370E-03    4.8398122835E-04    5.4904160863E-04
       923.1495496734      -20.5366812000       -1.6814992753    1.2900591520E-03    5.8280048109E-04    7.0725867090E-04
       924.1495496734      -19.5366812000       -1.6015528594    1.5230426121E-03    6.6947738436E-04    8.5356522771E-04
       924.6495496734      -19.0366812000       -1.5600439811    1.6655148103E-03    7.2136247730E-04    9.4415233297E-04
       924.6768566734      -19.0093742000       -1.5577451877    1.6738955611E-03    7.2439067278E-04    9.4950488829E-04
       925.2041636734      -18.4820672000       -1.5126694255    1.8497190499E-03    7.8735945555E-04    1.0623595944E-03
       925.7314706734      -17.9547602000       -1.4662084774    2.0564315278E-03    8.6013456848E-04    1.1962969593E-03
       926.2587776734      -17.4274532000       -1.4182263643    2.3018121842E-03    9.4498358594E-04    1.3568285983E-03
       926.7860846734      -16.9001462000       -1.3685628651    2.5962399049E-03    1.0448854388E-03    1.5513544661E-03
       927.3133916734      -16.3728392000       -1.3170281079    2.9537944130E-03    1.1638080982E-03    1.7899863148E-03
       927.8406986734      -15.8455322000       -1.2633929969    3.3939511153E-03    1.3071470845E-03    2.0868040307E-03
       928.3680056734      -15.3182252000       -1.2073775655    3.9441817762E-03    1.4823757469E-03    2.4618060293E-03
       928.8953126734      -14.7909182000       -1.1486335769    4.6440593740E-03    1.7000774096E-03    2.9439819644E-03
       929.4226196734      -14.2636112000       -1.0867187809    5.5518253670E-03    1.9755948461E-03    3.5762305209E-03
       929.9499266734      -13.7363042000       -1.0210564742    6.7549536346E-03    2.3316560795E-03    4.4232975551E-03
       930.4772336734      -13.2089972000       -0.9508706771    8.3870975720E-03    2.8025587366E-03    5.5845388354E-03
       931.0045406734      -12.6816902000       -0.8750735165    1.0655627905E-02    3.4404592750E-03    7.2151686302E-03
       931.5318476734      -12.1543832000       -0.7920557266    1.3885686427E-02    4.3228954423E-03    9.5627909846E-03
       932.0591546734      -11.6270762000       -0.6992501952    1.8573834148E-02    5.5554338979E-03    1.3018400250E-02
       932.5864616734      -11.0997692000       -0.5920721889    2.5363643615E-02    7.2520311997E-03    1.8111612416E-02
       933.1137686734      -10.5724622000       -0.4605954097    3.4561826463E-02    9.4582417481E-03    2.5103584715E-02
       933.6410756734      -10.0451552000       -0.2715635704    4.4329222732E-02    1.1898034210E-02    3.2431188522E-02
       933.9220497134       -9.7641811600        0.0000000000    4.7682482843E-02    1.3054848328E-02    3.4627634515E-02
       934.6956897134       -8.9905411600        0.4506173076    4.8249478888E-02    1.8286661408E-02    2.9962817480E-02
       935.2229967134       -8.4632341600        0.5843435147    4.2380831676E-02    1.7840105638E-02    2.4540726038E-02
       935.7503037134       -7.9359271600        0.6927183808    3.3857636458E-02    1.6134349497E-02    1.7723286961E-02
       936.2776107134       -7.4086201600        0.7862951654    2.7250995867E-02    1.4792116567E-02    1.2458879300E-02
       936.8049177134       -6.8813131600        0.8698629044    2.2447369423E-02    1.3626417301E-02    8.8209521216E-03
       937.3322247134       -6.3540061600        0.9460775609    1.8899544391E-02    1.2594660117E-02    6.3048842745E-03
       937.8595317134       -5.8266991600        1.0165943815    1.6237028717E-02    1.1707697963E-02    4.5293307546E-03
       938.3868387134       -5.2993921600        1.0825273769    1.4231489951E-02    1.0958628347E-02    3.2728616042E-03
       938.9141457134       -4.7720851600        1.1446689072    1.2749356747E-02    1.0330466463E-02    2.4188902834E-03
       939.4414527134       -4.2447781600        1.2036063694    1.1703204727E-02    9.8047473218E-03    1.8984574051E-03
       939.9687597134       -3.7174711600        1.2597895371    1.1010053215E-02    9.3639042254E-03    1.6461489893E-03
       940.4960667134       -3.1901641600        1.3135718720    1.0564254934E-02    8.9929647783E-03    1.5712901558E-03
       941.0233737134       -2.6628571600        1.3652371010    1.0238331531E-02    8.6800716279E-03    1.5582599035E-03
       941.5506807134       -2.1355501600        1.4150171804    9.9266309182E-03    8.4156288930E-03    1.5110020253E-03
       942.0779877134       -1.6082431600        1.4631046143    9.5947756267E-03    8.1912589033E-03    1.4035167233E-03
       942.6052947134       -1.0809361600        1.5096610187    9.2759271504E-03    8.0009054260E-03    1.2750217244E-03
       943.1326017144       -0.5536291590        1.5548240682    9.0192471926E-03    7.8396564471E-03    1.1795907456E-03
       943.6599087148       -0.0263221586        1.5987117194    8.8446042525E-03    7.7037959566E-03    1.1408082959E-03
       944.1495497144        0.4633188410        1.6384121974    8.7387626741E-03    7.6020526051E-03    1.1367100690E-03
       944.1872157144        0.5009848410        1.6414264082    8.7318010650E-03    7.5955294141E-03    1.1362716509E-03
       945.6495497134        1.9633188400        1.7544506600    8.3011784655E-03    7.3348349217E-03    9.6634354382E-04
       947.1495497134        3.4633188400        1.8632764912    7.6912533164E-03    7.1718858484E-03    5.1936746799E-04
       948.6495497134        4.9633188400        1.9660879074    7.1299524022E-03    7.0773321159E-03    5.2620286364E-05
       950.1495497134        6.4633188400        2.0637839638    6.7296291069E-03    7.0295032249E-03   -2.9987411810E-04
       951.6495497134        7.9633188400        2.1570597672    6.5167784015E-03    7.0158070186E-03   -4.9902861712E-04
       953.1495497134        9.4633188400        2.2464658918    6.4764818274E-03    7.0319855299E-03   -5.5550370253E-04
       954.1495496734       10.4633188000        2.3041435893    6.5678973125E-03    7.0720768822E-03   -5.0417956965E-04
       954.6495496734       10.9633188000        2.3324475542    6.6650766214E-03    7.1114518019E-03   -4.4637518051E-04
       974.1495496734       30.4633188000        3.2493758720    7.3157101506E-03    6.8236191786E-03    4.9209097200E-04
       994.1495496734       50.4633188000        3.9759033856    6.3784574867E-03    6.5794503967E-03   -2.0099290995E-04
      1014.1495496734       70.4633188000        4.5888096998    6.0877321830E-03    6.1860921987E-03   -9.8360015743E-05
      1034.1495496734       90.4633188000        5.1289902700    6.1864828743E-03    5.8533146187E-03    3.3316825565E-04
      1054.1495498734      110.4633190000        5.6174642422    5.4367566688E-03    5.5780351905E-03   -1.4127852168E-04
