# # Once                                                         FEFF 10.0.0 
# # POT  SCF  60  4.0000   0, NO core-hole, AFOLP (folp(0)= 1.150)
# # Abs   Z=29 Rmt= 1.362 Rnm= 1.399 L3 shell
# #   RGRID 0.0100
# # Pot 1 Z=29 Rmt= 1.362 Rnm= 1.399
# # Gam_ch=5.960E-01 H-L exch Vi= 4.000E-05 Vr= 1.482E+00
# # Mu=-7.619E+00eV kf=2.012E+00 Vint=-1.628E+01eV Rs_int= 1.802
# FMS rfms= 8.0000
# # PATH  Rmax=-1.000,  Keep_limit= 0.00, Heap_limit 0.00  Pwcrit= 2.50%
#  S02=1.000  Temp=   0.00  Debye_temp=   0.00  Global_sig2= 0.00000
#  Energy zero shift, vr, vi    0.00000E+00   0.00000E+00
#  Curved wave amplitude ratio filter   4.000%
#     file         sig2 tot  cw amp ratio   deg  nlegs   reff  inp sig2
#     0/   0 paths used
#  xsedge+ 50, used to normalize mu           1.0000E+00
#  -----------------------------------------------------------------------
#  omega    e    k    mu    mu0     chi     @#
       884.1496476344      -59.5366812000       -3.6383496384    1.0398214250E-05    1.0631702989E-05   -2.3348873921E-07
       894.1496476344      -49.5366812000       -3.2577454747    1.4138671484E-05    1.4480919688E-05   -3.4224820391E-07
       904.1496476344      -39.5366812000       -2.8263444704    2.0829294189E-05    2.1377328726E-05   -5.4803453746E-07
       914.1496476344      -29.5366812000       -2.3159317133    3.5527925902E-05    3.6542029239E-05   -1.0141033370E-06
       915.6496476344      -28.0366812000       -2.2293131478    3.9284157823E-05    4.0417439329E-05   -1.1332815067E-06
       917.1496476344      -26.5366812000       -2.1391902549    4.3818844054E-05    4.5093501729E-05   -1.2746576747E-06
       918.6496476344      -25.0366812000       -2.0450995959    4.9470948732E-05    5.0914603461E-05   -1.4436547281E-06
       920.1496476344      -23.5366812000       -1.9464659687    5.6434521475E-05    5.8082597400E-05   -1.6480759250E-06
       921.6496476344      -22.0366812000       -1.8425600677    6.5316814838E-05    6.7214196776E-05   -1.8973819376E-06
       923.1496476344      -20.5366812000       -1.7324332638    7.6993160974E-05    7.9196410410E-05   -2.2032494360E-06
       924.1496476344      -19.5366812000       -1.6549491721    8.7016839933E-05    8.9461300000E-05   -2.4444600672E-06
       924.2496606344      -19.4366682000       -1.6469991989    8.8146163572E-05    9.0616505633E-05   -2.4703420609E-06
       924.3496736344      -19.3366552000       -1.6390107949    8.9301665941E-05    9.1798211108E-05   -2.4965451667E-06
       924.4496866344      -19.2366422000       -1.6309830691    9.0484286526E-05    9.3007353447E-05   -2.5230669208E-06
       924.5496996344      -19.1366292000       -1.6229158316    9.1694906266E-05    9.4244809890E-05   -2.5499036240E-06
       924.6496476344      -19.0366812000       -1.6148134331    9.2933664228E-05    9.5510698152E-05   -2.5770339238E-06
       924.7497256344      -18.9366032000       -1.6066596426    9.4203944527E-05    9.6808450469E-05   -2.6045059420E-06
       924.8497386344      -18.8365902000       -1.5984695199    9.5504504374E-05    9.8136762457E-05   -2.6322580828E-06
       924.9497516344      -18.7365772000       -1.5902372835    9.6837135097E-05    9.9497437572E-05   -2.6603024747E-06
       925.0497646344      -18.6365642000       -1.5819622087    9.8203044350E-05    1.0089166756E-04   -2.6886232062E-06
       925.1497776344      -18.5365512000       -1.5736435520    9.9603468621E-05    1.0232067115E-04   -2.7172025289E-06
       925.2497906344      -18.4365382000       -1.5652807546    1.0103964459E-04    1.0378567189E-04   -2.7460272994E-06
       925.3498036344      -18.3365252000       -1.5568730367    1.0251294034E-04    1.0528800761E-04   -2.7750672721E-06
       925.4498166344      -18.2365122000       -1.5484196667    1.0402478202E-04    1.0682907656E-04   -2.8042945318E-06
       925.5498296344      -18.1364992000       -1.5399198927    1.0557661499E-04    1.0841028363E-04   -2.8336686413E-06
       925.6498426344      -18.0364862000       -1.5313729421    1.0717010169E-04    1.1003322432E-04   -2.8631226322E-06
       925.7498556344      -17.9364732000       -1.5227779506    1.0880684864E-04    1.1169943498E-04   -2.8925863311E-06
       925.8498686344      -17.8364602000       -1.5141342406    1.1048864648E-04    1.1341059364E-04   -2.9219471640E-06
       925.9498816344      -17.7364472000       -1.5054408316    1.1221741651E-04    1.1516847561E-04   -2.9510591075E-06
       926.0498946344      -17.6364342000       -1.4966969998    1.1399525008E-04    1.1697491766E-04   -2.9796675848E-06
       926.1499076344      -17.5364212000       -1.4879017848    1.1582458945E-04    1.1883200403E-04   -3.0074145772E-06
       926.2499206344      -17.4364082000       -1.4790542698    1.1770788131E-04    1.2074163684E-04   -3.0337555303E-06
       926.3499336344      -17.3363952000       -1.4701535106    1.1964825059E-04    1.2270608478E-04   -3.0578341852E-06
       926.4499466344      -17.2363822000       -1.4611984614    1.2164895904E-04    1.2472769410E-04   -3.0787350615E-06
       926.5499596344      -17.1363692000       -1.4521882645    1.2371231888E-04    1.2680880514E-04   -3.0964862580E-06
       926.6499726344      -17.0363562000       -1.4431218131    1.2583666123E-04    1.2895200727E-04   -3.1153460343E-06
       926.7499856344      -16.9363432000       -1.4339980401    1.2801687706E-04    1.3116020563E-04   -3.1433285633E-06
       926.8499986344      -16.8363302000       -1.4248157699    1.3025516417E-04    1.3343616813E-04   -3.1810039638E-06
       926.9500116344      -16.7363172000       -1.4155740895    1.3256327148E-04    1.3578312175E-04   -3.2198502746E-06
       927.0500246344      -16.6363042000       -1.4062715249    1.3495029110E-04    1.3820444976E-04   -3.2541586546E-06
       927.1500376344      -16.5362912000       -1.3969070884    1.3742163505E-04    1.4070391878E-04   -3.2822837209E-06
       927.2500506344      -16.4362782000       -1.3874793737    1.3998359661E-04    1.4328559304E-04   -3.3019964279E-06
       927.3500636344      -16.3362652000       -1.3779873139    1.4263749562E-04    1.4595379855E-04   -3.3163029272E-06
       927.4500766344      -16.2362522000       -1.3684293365    1.4538591574E-04    1.4871240721E-04   -3.3264914738E-06
       927.5500896344      -16.1362392000       -1.3588040506    1.4822610463E-04    1.5156500853E-04   -3.3389039031E-06
       927.6501026344      -16.0362262000       -1.3491100944    1.5115589555E-04    1.5451505829E-04   -3.3591627427E-06
       927.7501156344      -15.9362132000       -1.3393461358    1.5418121256E-04    1.5756677900E-04   -3.3855664388E-06
       927.8501286344      -15.8362002000       -1.3295103923    1.5731136236E-04    1.6072523371E-04   -3.4138713552E-06
       927.9501416344      -15.7361872000       -1.3196012991    1.6055588337E-04    1.6399608413E-04   -3.4402007599E-06
       928.0501546344      -15.6361742000       -1.3096171913    1.6392347500E-04    1.6738540867E-04   -3.4619336725E-06
       928.1501676344      -15.5361612000       -1.2995564216    1.6742238791E-04    1.7089973078E-04   -3.4773428696E-06
       928.2501806344      -15.4361482000       -1.2894171958    1.7106090273E-04    1.7454604997E-04   -3.4851472387E-06
       928.3501936344      -15.3361352000       -1.2791976066    1.7484756852E-04    1.7833189298E-04   -3.4843244566E-06
       928.4502066344      -15.2361222000       -1.2688956283    1.7879145565E-04    1.8226529188E-04   -3.4738362257E-06
       928.5502196344      -15.1361092000       -1.2585094493    1.8290240385E-04    1.8635491057E-04   -3.4525067224E-06
       928.6502326344      -15.0360962000       -1.2480367113    1.8719092004E-04    1.9061002253E-04   -3.4191024895E-06
       928.7502456344      -14.9360832000       -1.2374754749    1.9166839856E-04    1.9504066262E-04   -3.3722640641E-06
       928.8502586344      -14.8360702000       -1.2268232376    1.9634718514E-04    1.9965766644E-04   -3.3104812957E-06
       928.9502716344      -14.7360572000       -1.2160776956    2.0124043734E-04    2.0447263308E-04   -3.2321957348E-06
       929.0502846344      -14.6360442000       -1.2052364416    2.0636278095E-04    2.0949829588E-04   -3.1355149247E-06
       929.1502976344      -14.5360312000       -1.1942966461    2.1173009930E-04    2.1474850944E-04   -3.0184101329E-06
       929.2503106344      -14.4360182000       -1.1832558011    2.1735996774E-04    2.2023815050E-04   -2.8781827600E-06
       929.3503236344      -14.3360052000       -1.1721109600    2.2327222847E-04    2.2598362887E-04   -2.7114003987E-06
       929.4503366344      -14.2359922000       -1.1608591277    2.2948957085E-04    2.3200279353E-04   -2.5132226783E-06
       929.5503496344      -14.1359792000       -1.1494970698    2.3603813558E-04    2.3831517463E-04   -2.2770390534E-06
       929.6503626344      -14.0359662000       -1.1380216717    2.4294863725E-04    2.4494224821E-04   -1.9936109577E-06
       929.7503756344      -13.9359532000       -1.1264293278    2.5025752014E-04    2.5190778002E-04   -1.6502598775E-06
       929.8503886344      -13.8359402000       -1.1147164852    2.5800817178E-04    2.5923778108E-04   -1.2296093017E-06
       929.9504016344      -13.7359272000       -1.1028792081    2.6625327917E-04    2.6696109183E-04   -7.0781265946E-07
       930.0504146344      -13.6359142000       -1.0909135924    2.7505773031E-04    2.7511007599E-04   -5.2345680901E-08
       930.1504276344      -13.5359012000       -1.0788152195    2.8450126618E-04    2.8371995091E-04    7.8131526876E-07
       930.2504406344      -13.4358882000       -1.0665795220    2.9468454802E-04    2.9283099340E-04    1.8535546215E-06
       930.3504536344      -13.3358752000       -1.0542019202    3.0573201223E-04    3.0248811464E-04    3.2438975912E-06
       930.4504666344      -13.2358622000       -1.0416771513    3.1779190451E-04    3.1274128106E-04    5.0506234442E-06
       930.5504796344      -13.1358492000       -1.0290000483    3.3102059199E-04    3.2364878868E-04    7.3718033095E-06
       930.6504926344      -13.0358362000       -1.0161648051    3.4551731841E-04    3.3527588551E-04    1.0241432898E-05
       930.7505056344      -12.9358232000       -1.0031652987    3.6119704135E-04    3.4769588652E-04    1.3501154822E-05
       930.8505186344      -12.8358102000       -0.9899951658    3.7766044702E-04    3.6099617960E-04    1.6664267417E-05
       930.9505316344      -12.7357972000       -0.9766474493    3.9437511533E-04    3.7527549975E-04    1.9099615580E-05
       931.0505446344      -12.6357842000       -0.9631147105    4.1147141334E-04    3.9065012499E-04    2.0821288348E-05
       931.1505576344      -12.5357712000       -0.9493891496    4.3013054854E-04    4.0725813668E-04    2.2872411855E-05
       931.2505706344      -12.4357582000       -0.9354621937    4.5158590075E-04    4.2526090953E-04    2.6324991219E-05
       931.3505836344      -12.3357452000       -0.9213247389    4.7619068447E-04    4.4485462465E-04    3.1336059828E-05
       931.4505966344      -12.2357322000       -0.9069669122    5.0303293379E-04    4.6627486798E-04    3.6758065813E-05
       931.5506096344      -12.1357192000       -0.8923781365    5.2999807873E-04    4.8981182494E-04    4.0186253783E-05
       931.6506226344      -12.0357062000       -0.8775468935    5.5569502437E-04    5.1582450690E-04    3.9870517470E-05
       931.7506356344      -11.9356932000       -0.8624605821    5.8180760601E-04    5.4476352241E-04    3.7044083603E-05
       931.8506486344      -11.8356802000       -0.8471057003    6.1097894598E-04    5.7719979957E-04    3.3779146408E-05
       931.9506616344      -11.7356672000       -0.8314672730    6.4363777219E-04    6.1386602041E-04    2.9771751783E-05
       932.0506746344      -11.6356542000       -0.8155289887    6.7910054399E-04    6.5570145924E-04    2.3399084750E-05
       932.1506876344      -11.5356412000       -0.7992730092    7.1779452741E-04    7.0390058815E-04    1.3893939267E-05
       932.2507006344      -11.4356282000       -0.7826794035    7.6016212244E-04    7.5995540725E-04    2.0671518705E-07
       932.3507136344      -11.3356152000       -0.7657263266    8.0706257376E-04    8.2558798403E-04   -1.8525410277E-05
       932.4507266344      -11.2356022000       -0.7483893144    8.6072240078E-04    9.0246483964E-04   -4.1742438856E-05
       932.5507396344      -11.1355892000       -0.7306410367    9.2362628498E-04    9.9157353991E-04   -6.7947254936E-05
       932.6507526344      -11.0355762000       -0.7124507957    9.9580663680E-04    1.0921053878E-03   -9.6298750971E-05
       932.7507656344      -10.9355632000       -0.6937837522    1.0732195447E-03    1.2003313288E-03   -1.2711178405E-04
       932.8507786344      -10.8355502000       -0.6746003263    1.1496900543E-03    1.3088224103E-03   -1.5913235605E-04
       932.9507916344      -10.7355372000       -0.6548552401    1.2218801978E-03    1.4077076851E-03   -1.8582748728E-04
       933.0508046344      -10.6355242000       -0.6344959764    1.2957214956E-03    1.4902821497E-03   -1.9456065417E-04
       933.1508176344      -10.5355112000       -0.6134613892    1.3872687887E-03    1.5600757626E-03   -1.7280697390E-04
       933.2508306344      -10.4354982000       -0.5916795258    1.5105748839E-03    1.6302931074E-03   -1.1971822343E-04
       933.3508436344      -10.3354852000       -0.5690644895    1.6662746566E-03    1.7163818286E-03   -5.0107172032E-05
       933.4508566344      -10.2354722000       -0.5455127909    1.8498264800E-03    1.8309746047E-03    1.8851875314E-05
       933.5508696344      -10.1354592000       -0.5208972678    2.0659618601E-03    1.9841246142E-03    8.1837245911E-05
       933.6508826344      -10.0354462000       -0.4950593118    2.3271934297E-03    2.1860306963E-03    1.4116273334E-04
       933.7508956744       -9.9354331600       -0.4677963954    2.6504249409E-03    2.4500238966E-03    2.0040104431E-04
       933.8509086744       -9.8354201600       -0.4388430541    3.0611474075E-03    2.7956491794E-03    2.6549822815E-04
       933.9509216744       -9.7354071600       -0.4078393941    3.5966121138E-03    3.2528132811E-03    3.4379883273E-04
       934.0509346744       -9.6353941600       -0.3742762927    4.3079296206E-03    3.8680645131E-03    4.3986510745E-04
       934.1509476744       -9.5353811600       -0.3373907259    5.2716571336E-03    4.7142805525E-03    5.5737658111E-04
       934.2509606744       -9.4353681600       -0.2959430021    6.6123728731E-03    5.9027664783E-03    7.0960639481E-04
       934.3509736744       -9.3353551600       -0.2476530216    8.5082727653E-03    7.5848052158E-03    9.2346754953E-04
       934.4509866744       -9.2353421600       -0.1873012841    1.1111899142E-02    9.8917310060E-03    1.2201681360E-03
       934.5846476744       -9.1016811600        0.0000000000    1.5393192384E-02    1.3729879217E-02    1.6633131676E-03
       934.6510126744       -9.0353161600        0.1319799547    1.7406097017E-02    1.5597034471E-02    1.8090625455E-03
       934.7510256744       -8.9353031600        0.2089711779    1.9686570372E-02    1.7841987040E-02    1.8445833322E-03
       934.8510386744       -8.8352901600        0.2644223666    2.0876216165E-02    1.9213821019E-02    1.6623951460E-03
       934.9510516744       -8.7352771600        0.3101119626    2.1192062670E-02    1.9850476435E-02    1.3415862347E-03
       935.0510646744       -8.6352641600        0.3498852441    2.0957736892E-02    1.9990348581E-02    9.6738831043E-04
       935.1510776744       -8.5352511600        0.3855773578    2.0422067391E-02    1.9827337217E-02    5.9473017452E-04
       935.2510906744       -8.4352381600        0.4182345517    1.9740702370E-02    1.9488579688E-02    2.5212268291E-04
       935.3511036744       -8.3352251600        0.4485202429    1.9005573110E-02    1.9052578686E-02   -4.7005576343E-05
       935.4511166744       -8.2352121600        0.4768863838    1.8267477682E-02    1.8567929328E-02   -3.0045164588E-04
       935.5511296744       -8.1351991600        0.5036575401    1.7555608359E-02    1.8064857350E-02   -5.0924899088E-04
       935.6511426744       -8.0351861600        0.5290757342    1.6882068973E-02    1.7558801940E-02   -6.7673296777E-04
       935.7511556744       -7.9351731600        0.5533275467    1.6255395242E-02    1.7062826977E-02   -8.0743173541E-04
       935.8511686744       -7.8351601600        0.5765601806    1.5677832174E-02    1.6583074308E-02   -9.0524213476E-04
       935.9511816744       -7.7351471600        0.5988922134    1.5147365561E-02    1.6122033657E-02   -9.7466809606E-04
       936.0511946744       -7.6351341600        0.6204209254    1.4662424306E-02    1.5682071607E-02   -1.0196473006E-03
       936.1512076744       -7.5351211600        0.6412271721    1.4257969212E-02    1.5292507078E-02   -1.0345378664E-03
       936.2512206744       -7.4351081600        0.6613793018    1.3892111703E-02    1.4927286383E-02   -1.0351746797E-03
       936.3512336744       -7.3350951600        0.6809352361    1.3550630075E-02    1.4578578733E-02   -1.0279486579E-03
       936.4512466744       -7.2350821600        0.6999450243    1.3230159563E-02    1.4246159053E-02   -1.0159994899E-03
       936.5512596744       -7.1350691600        0.7184520386    1.2926798942E-02    1.3929692772E-02   -1.0028938294E-03
       936.6512726744       -7.0350561600        0.7364940732    1.2636873433E-02    1.3628955613E-02   -9.9208218084E-04
       936.7512856744       -6.9350431600        0.7541046090    1.2356131160E-02    1.3343000956E-02   -9.8686979655E-04
       936.8512986744       -6.8350301600        0.7713131677    1.2080114248E-02    1.3070290320E-02   -9.9017607147E-04
       936.9513116744       -6.7350171600        0.7881461142    1.1807322785E-02    1.2811798411E-02   -1.0044756254E-03
       937.0513246744       -6.6350041600        0.8046269563    1.1534549135E-02    1.2566090833E-02   -1.0315416978E-03
       937.1513376744       -6.5349911600        0.8207768721    1.1259989665E-02    1.2332392265E-02   -1.0724026006E-03
       937.2513506744       -6.4349781600        0.8366152171    1.0982303881E-02    1.2109639224E-02   -1.1273353421E-03
       937.3513636744       -6.3349651600        0.8521591458    1.0702678349E-02    1.1898525565E-02   -1.1958472159E-03
       937.4513766744       -6.2349521600        0.8674245777    1.0420735325E-02    1.1697535447E-02   -1.2768001214E-03
       937.5513896744       -6.1349391600        0.8824260267    1.0136475558E-02    1.1504975077E-02   -1.3684995187E-03
       937.6514026744       -6.0349261600        0.8971766756    9.8540790089E-03    1.1323001098E-02   -1.4689220894E-03
       937.7514156744       -5.9349131600        0.9116886395    9.5730600681E-03    1.1148634388E-02   -1.5755743196E-03
       937.8514286744       -5.8349001600        0.9259732555    9.2966745993E-03    1.0982785142E-02   -1.6861105427E-03
       937.9514416744       -5.7348871600        0.9400408030    9.0262107775E-03    1.0824262971E-02   -1.7980521938E-03
       938.0514546744       -5.6348741600        0.9539009693    8.7646727176E-03    1.0673793004E-02   -1.9091202865E-03
       938.1514676744       -5.5348611600        0.9675625289    8.5121471080E-03    1.0529022603E-02   -2.0168754946E-03
       938.2514806744       -5.4348481600        0.9810338063    8.2719929170E-03    1.0391536382E-02   -2.1195434651E-03
       938.3514936744       -5.3348351600        0.9943226960    8.0437996556E-03    1.0258857679E-02   -2.2150580238E-03
       938.4515066744       -5.2348221600        1.0074362570    7.8313742402E-03    1.0133462768E-02   -2.3020885273E-03
       938.5515196744       -5.1348091600        1.0203813535    7.6336516800E-03    1.0012778586E-02   -2.3791269056E-03
       938.6515326744       -5.0347961600        1.0331642148    7.4520734842E-03    9.8971944847E-03   -2.4451210004E-03
