# # Once                                                         FEFF 10.0.0 
# # POT  SCF  60  4.0000   0, NO core-hole, AFOLP (folp(0)= 1.150)
# # Abs   Z=29 Rmt= 1.362 Rnm= 1.399 L3 shell
# #   RGRID 0.0100
# # Pot 1 Z=29 Rmt= 1.362 Rnm= 1.399
# # Gam_ch=5.960E-01 H-L exch Vi= 2.376E+00 Vr= 7.735E+00
# # Mu=-6.021E+00eV kf=2.118E+00 Vint=-1.686E+01eV Rs_int= 1.712
# FMS rfms= 8.0000
# # PATH  Rmax=-1.000,  Keep_limit= 0.00, Heap_limit 0.00  Pwcrit= 2.50%
#  S02=1.000  Temp=   0.00  Debye_temp=   0.00  Global_sig2= 0.00000
#  Energy zero shift, vr, vi    0.00000E+00   0.00000E+00
#  Curved wave amplitude ratio filter   4.000%
#     file         sig2 tot  cw amp ratio   deg  nlegs   reff  inp sig2
#     0/   0 paths used
#  xsedge+ 50, used to normalize mu           1.0000E+00
#  -----------------------------------------------------------------------
#  omega    e    k    mu    mu0     chi     @#
       879.0888416413      -62.9986789000       -3.5950938623    2.1359815870E-04    2.1313970420E-04    4.5845449371E-07
       889.0888416413      -52.9986789000       -3.2093640127    3.1932580048E-04    3.1868485339E-04    6.4094708771E-07
       899.0888416413      -42.9986789000       -2.7704393156    5.4028335407E-04    5.3938872029E-04    8.9463378125E-07
       909.0888416413      -32.9986789000       -2.2473653604    1.1530625065E-03    1.1520769519E-03    9.8555466558E-07
       910.5888416413      -31.4986789000       -2.1579965011    1.3370435087E-03    1.3361235329E-03    9.1997585470E-07
       912.0888416413      -29.9986789000       -2.0647630152    1.5710653035E-03    1.5702480240E-03    8.1727953102E-07
       913.5888416413      -28.4986789000       -1.9671155836    1.8751907501E-03    1.8745024417E-03    6.8830839027E-07
       915.0888416413      -26.9986789000       -1.8643608402    2.2808594223E-03    2.2802679679E-03    5.9145443254E-07
       916.5888416413      -25.4986789000       -1.7556021054    2.8390035334E-03    2.8382804540E-03    7.2307943518E-07
       918.0888416413      -23.9986789000       -1.6396452630    3.6354742465E-03    3.6338064580E-03    1.6677884913E-06
       919.0888116413      -22.9987089000       -1.5575544934    4.3705678898E-03    4.3670755278E-03    3.4923619789E-06
       919.5888416413      -22.4986789000       -1.5148380150    4.8248991528E-03    4.8197863952E-03    5.1127576255E-06
       919.9808586413      -22.1066619000       -1.4804870003    5.2323275796E-03    5.2254375251E-03    6.8900545094E-06
       920.8729056413      -21.2146149000       -1.3991811684    6.3733306202E-03    6.3598775423E-03    1.3453077936E-05
       921.7649526413      -20.3225679000       -1.3128495393    7.9212989983E-03    7.8956444702E-03    2.5654528089E-05
       922.6569996413      -19.4305209000       -1.2204261511    1.0076959140E-02    1.0030112559E-02    4.6846581153E-05
       923.5490466413      -18.5384739000       -1.1204043266    1.3155282669E-02    1.3077721252E-02    7.7561417258E-05
       924.4410936413      -17.6464269000       -1.0105303623    1.7625225156E-02    1.7529859656E-02    9.5365499765E-05
       925.3331406413      -16.7543799000       -0.8871514474    2.4051477538E-02    2.4071829703E-02   -2.0352164410E-05
       926.2251876413      -15.8623329000       -0.7435749200    3.2641703940E-02    3.3271151085E-02   -6.2944714522E-04
       927.1172346413      -14.9702859000       -0.5645968291    4.2126317841E-02    4.4127479576E-02   -2.0011617353E-03
       928.3317416413      -13.7557789000        0.0000000000    5.0017375710E-02    5.2199755099E-02   -2.1823793887E-03
       928.9013286413      -13.1861919000        0.3866503999    4.9342777777E-02    4.9910182604E-02   -5.6740482750E-04
       929.7933756413      -12.2941449000        0.6193807882    4.2834309206E-02    4.0991498298E-02    1.8428109087E-03
       930.6854226413      -11.4020979000        0.7859812909    3.3670359682E-02    3.1304986290E-02    2.3653733914E-03
       931.5774696413      -10.5100509000        0.9229846542    2.5678913231E-02    2.3814728717E-02    1.8641845137E-03
       932.4695166213       -9.6180039200        1.0421298612    1.9872128795E-02    1.8613252445E-02    1.2588763498E-03
       933.3615636213       -8.7259569200        1.1489860267    1.5879941172E-02    1.5079936215E-02    8.0000495710E-04
       934.2536106213       -7.8339099200        1.2467168558    1.3148065899E-02    1.2656842508E-02    4.9122339103E-04
       935.1456576213       -6.9418629200        1.3373245483    1.1271932303E-02    1.0963231707E-02    3.0870059600E-04
       936.0377046213       -6.0498159200        1.4221712191    9.9941911076E-03    9.7561970430E-03    2.3799406461E-04
       936.9297516213       -5.1577689200        1.5022332684    9.1805621251E-03    8.9324829821E-03    2.4807914301E-04
       937.8217986213       -4.2657219200        1.5782392196    8.6045112044E-03    8.3211920407E-03    2.8331916366E-04
       938.7138456213       -3.3736749200        1.6507493075    8.1637394335E-03    7.8607857201E-03    3.0295371336E-04
       939.0888416213       -2.9986789200        1.6802968607    8.0063966008E-03    7.7012781618E-03    3.0511843899E-04
       940.5888416213       -1.4986789200        1.7936275860    7.5219427175E-03    7.2198612177E-03    3.0208149980E-04
       942.0888416165        0.0013210752        1.9002110623    7.1611717568E-03    6.9132614018E-03    2.4791035498E-04
       943.5888416213        1.5013210800        2.0011259572    6.7978638545E-03    6.7206570671E-03    7.7206787374E-05
       945.0888416213        3.0013210800        2.0971904269    6.4486152725E-03    6.6049449928E-03   -1.5632972030E-04
       946.5888416213        4.5013210800        2.1890431358    6.1684334562E-03    6.5420024160E-03   -3.7356895977E-04
       948.0888416213        6.0013210800        2.2771939839    5.9867122549E-03    6.5159358469E-03   -5.2922359195E-04
       949.0888416213        7.0013210800        2.3341123991    5.9269494960E-03    6.5133103296E-03   -5.8636083355E-04
       949.5888416213        7.5013210800        2.3620572822    5.9145976869E-03    6.5154600624E-03   -6.0086237556E-04
       969.0888416413       27.0013211000        3.2706950551    7.1866538123E-03    6.6793372881E-03    5.0731652423E-04
       989.0888416413       47.0013211000        3.9933459681    6.2628459584E-03    6.5417696246E-03   -2.7892366621E-04
      1009.0888416413       67.0013211000        4.6039309782    6.0504374693E-03    6.1765904588E-03   -1.2615298952E-04
      1029.0888416413       87.0013211000        5.1425232599    6.2680607473E-03    5.8510837546E-03    4.1697699265E-04
      1049.0888415413      107.0013210000        5.6298231590    5.3738149823E-03    5.5698899593E-03   -1.9607497698E-04
