# # Once                                                         FEFF 10.0.0 
# # POT  SCF  60  4.0000   0, NO core-hole, AFOLP (folp(0)= 1.150)
# # Abs   Z=29 Rmt= 1.362 Rnm= 1.399 L3 shell
# #   RGRID 0.0100
# # Pot 1 Z=29 Rmt= 1.362 Rnm= 1.399
# # Gam_ch=5.960E-01 H-L exch Vi= 3.923E-01 Vr=-2.048E+00
# # Mu=-6.021E+00eV kf=2.118E+00 Vint=-1.686E+01eV Rs_int= 1.712
# FMS rfms= 8.0000
# # PATH  Rmax=-1.000,  Keep_limit= 0.00, Heap_limit 0.00  Pwcrit= 2.50%
#  S02=1.000  Temp=   0.00  Debye_temp=   0.00  Global_sig2= 0.00000
#  Energy zero shift, vr, vi    0.00000E+00   0.00000E+00
#  Curved wave amplitude ratio filter   4.000%
#     file         sig2 tot  cw amp ratio   deg  nlegs   reff  inp sig2
#     0/   0 paths used
#  xsedge+ 50, used to normalize mu           1.0000E+00
#  -----------------------------------------------------------------------
#  omega    e    k    mu    mu0     chi     @#
       879.0888534104      -62.9986889000       -3.9360522711    1.9115890983E-05    1.9152209947E-05   -3.6318964019E-08
       889.0888534104      -52.9986889000       -3.5871748306    2.6057887091E-05    2.6093973956E-05   -3.6086865267E-08
       899.0888534104      -42.9986889000       -3.2004905719    3.8947535968E-05    3.8966075883E-05   -1.8539914338E-08
       909.0888534104      -32.9986889000       -2.7601551653    7.0047020558E-05    6.9976215507E-05    7.0805051482E-08
       910.5888534104      -31.4986889000       -2.6878903200    7.8781494308E-05    7.8680797926E-05    1.0069638187E-07
       912.0888534104      -29.9986889000       -2.6136282509    8.9679113303E-05    8.9540044171E-05    1.3906913163E-07
       913.5888534104      -28.4986889000       -2.5371934238    1.0353547093E-04    1.0334632924E-04    1.8914168790E-07
       915.0888534104      -26.9986889000       -2.4583830110    1.2137391271E-04    1.2111805079E-04    2.5586192676E-07
       916.5888534104      -25.4986889000       -2.3769612669    1.4701298062E-04    1.4665524184E-04    3.5773877229E-07
       918.0888534104      -23.9986889000       -2.2926498045    1.8292840755E-04    1.8240181062E-04    5.2659693134E-07
       919.0888534104      -22.9986889000       -2.2346753732    2.1637518872E-04    2.1564879430E-04    7.2639442557E-07
       919.3196144104      -22.7679279000       -2.2210823895    2.2562163324E-04    2.2483059675E-04    7.9103649434E-07
       919.5503754104      -22.5371669000       -2.2074056069    2.3556834713E-04    2.3470253390E-04    8.6581322786E-07
       919.5888534104      -22.4986889000       -2.2051168020    2.3730146213E-04    2.3642203487E-04    8.7942725844E-07
       919.7811364104      -22.3064059000       -2.1936434577    2.4629437615E-04    2.4534145475E-04    9.5292140006E-07
       920.0118974104      -22.0756449000       -2.1797946182    2.5788549618E-04    2.5683035444E-04    1.0551417393E-06
       920.2426584104      -21.8448839000       -2.1658571304    2.7044266678E-04    2.6926670204E-04    1.1759647407E-06
       920.4734194104      -21.6141229000       -2.1518294698    2.8407776234E-04    2.8275788905E-04    1.3198732892E-06
       920.7041804104      -21.3833619000       -2.1377095625    2.9892826573E-04    2.9743578665E-04    1.4924790872E-06
       920.9349414104      -21.1526009000       -2.1234959692    3.1514652779E-04    3.1344528974E-04    1.7012380473E-06
       921.1657024104      -20.9218399000       -2.1091863924    3.3291486209E-04    3.3095939100E-04    1.9554710854E-06
       921.3964634104      -20.6910789000       -2.0947790681    3.5244453703E-04    3.5017682036E-04    2.2677166670E-06
       921.6272244104      -20.4603179000       -2.0802721701    3.7398578196E-04    3.7133149655E-04    2.6542854110E-06
       921.8579854104      -20.2295569000       -2.0656631885    3.9784289952E-04    3.9470613703E-04    3.1367624841E-06
       922.0887464104      -19.9987959000       -2.0509504606    4.2436480464E-04    4.2062034931E-04    3.7444553270E-06
       922.3195074104      -19.7680349000       -2.0361311102    4.5399166707E-04    4.4947494100E-04    4.5167260722E-06
       922.5502684104      -19.5372739000       -2.0212031082    4.8723969022E-04    4.8173190262E-04    5.5077875963E-06
       922.7810294104      -19.3065129000       -2.0061643472    5.2476068730E-04    5.1796750365E-04    6.7931836536E-06
       923.0117904104      -19.0757519000       -1.9910115692    5.6734596236E-04    5.5886681410E-04    8.4791482533E-06
       923.2425514104      -18.8449909000       -1.9757427972    6.1601072135E-04    6.0529386442E-04    1.0716856924E-05
       923.4733124104      -18.6142299000       -1.9603553209    6.7201361008E-04    6.5829421425E-04    1.3719395826E-05
       923.7040734104      -18.3834689000       -1.9448457755    7.3697795742E-04    7.1920091489E-04    1.7777042525E-05
       923.9348344104      -18.1527079000       -1.9292117686    8.1292912727E-04    7.8967470453E-04    2.3254422740E-05
       924.1655954104      -17.9219469000       -1.9134499158    9.0252393027E-04    8.7187699437E-04    3.0646935905E-05
       924.3963564104      -17.6911859000       -1.8975571434    1.0094130378E-03    9.6854814752E-04    4.0864890324E-05
       924.6271174104      -17.4604249000       -1.8815301338    1.1387825286E-03    1.0833471492E-03    5.5435379376E-05
       924.8578784104      -17.2296639000       -1.8653654271    1.2974286681E-03    1.2210899757E-03    7.6338692448E-05
       925.0886394104      -16.9989029000       -1.8490594118    1.4945946912E-03    1.3883254201E-03    1.0626927102E-04
       925.3194004104      -16.7681419000       -1.8326082581    1.7440355039E-03    1.5939489885E-03    1.5008651544E-04
       925.5501614104      -16.5373809000       -1.8160081387    2.0674481703E-03    1.8503944987E-03    2.1705367158E-04
       925.7809224104      -16.3066199000       -1.7992549305    2.4968338867E-03    2.1753903006E-03    3.2144358610E-04
       926.0116834104      -16.0758589000       -1.7823441374    3.0773232929E-03    2.5950238970E-03    4.8229939582E-04
       926.2424444104      -15.8450979000       -1.7652714717    3.8663720522E-03    3.1482928895E-03    7.1807916277E-04
       926.4732054104      -15.6143369000       -1.7480320689    4.9159982591E-03    3.8944921347E-03    1.0215061244E-03
       926.7039664104      -15.3835759000       -1.7306208230    6.2311338365E-03    4.9262066724E-03    1.3049271641E-03
       926.9347274104      -15.1528149000       -1.7130327428    7.7528953436E-03    6.3880616549E-03    1.3648336887E-03
       927.1654884104      -14.9220539000       -1.6952620733    9.3925185280E-03    8.5010784809E-03    8.9144004714E-04
       927.3962494104      -14.6912929000       -1.6773032013    1.1102433269E-02    1.1568531477E-02   -4.6609820843E-04
       927.6270104104      -14.4605319000       -1.6591499514    1.2967680612E-02    1.5854671562E-02   -2.8869909497E-03
       927.8577714104      -14.2297709000       -1.6407959368    1.4997172709E-02    2.1090568118E-02   -6.0933954085E-03
       928.0885324104      -13.9990099000       -1.6222342775    1.6692907828E-02    2.5578615880E-02   -8.8857080524E-03
       928.3192934104      -13.7682489000       -1.6034576297    1.7658598886E-02    2.6490694440E-02   -8.8320955544E-03
       928.5500544104      -13.5374879000       -1.5844585518    1.8569379532E-02    2.3160605745E-02   -4.5912262128E-03
       928.7808154104      -13.3067269000       -1.5652289441    1.9315090937E-02    1.8161874696E-02    1.1532162406E-03
       929.0115764104      -13.0759659000       -1.5457600653    1.8890331656E-02    1.3732146295E-02    5.1581853617E-03
       929.2423374104      -12.8452049000       -1.5260428275    1.6746843568E-02    1.0449091709E-02    6.2977518586E-03
       929.4730984104      -12.6144439000       -1.5060674764    1.3527700561E-02    8.1419359924E-03    5.3857645691E-03
       929.7038594104      -12.3836829000       -1.4858236018    1.0468259455E-02    6.5269325866E-03    3.9413268683E-03
       929.9346204104      -12.1529219000       -1.4653000016    8.1345311130E-03    5.3792213845E-03    2.7553097285E-03
       930.1653814104      -11.9221609000       -1.4444849002    6.4824472570E-03    4.5476281203E-03    1.9348191367E-03
       930.3961424104      -11.6913999000       -1.4233655089    5.3193888481E-03    3.9328791377E-03    1.3865097104E-03
       930.6269034104      -11.4606389000       -1.4019279239    4.4854939094E-03    3.4704830385E-03    1.0150108709E-03
       930.8576644104      -11.2298779000       -1.3801574725    3.8738658361E-03    3.1176177786E-03    7.5624805752E-04
       931.0884254104      -10.9991169000       -1.3580379111    3.4162183508E-03    2.8450778009E-03    5.7114054982E-04
       931.3191864104      -10.7683559000       -1.3355522127    3.0689184405E-03    2.6328757803E-03    4.3604266025E-04
       931.5499474104      -10.5375949000       -1.3126812378    2.8031353803E-03    2.4670114969E-03    3.3612388337E-04
       931.7807084104      -10.3068339000       -1.2894048150    2.5985799020E-03    2.3369714496E-03    2.6160845238E-04
       932.0114694104      -10.0760729000       -1.2657002395    2.4413106520E-03    2.2357258098E-03    2.0558484227E-04
       932.2422303904       -9.8453119200       -1.2415433304    2.3201975798E-03    2.1573096780E-03    1.6288790185E-04
       932.4729913904       -9.6145509200       -1.2169069314    2.2273455679E-03    2.0978484192E-03    1.2949714866E-04
       932.7037523904       -9.3837899200       -1.1917613065    2.1561924111E-03    2.0539829898E-03    1.0220942134E-04
       932.9345133904       -9.1530289200       -1.1660735585    2.1015817475E-03    2.0231130597E-03    7.8468687873E-05
       933.1652743904       -8.9222679200       -1.1398070812    2.0599080537E-03    2.0036661454E-03    5.6241908269E-05
       933.3960353904       -8.6915069200       -1.1129207555    2.0274905452E-03    1.9935260000E-03    3.3964545207E-05
       933.6267963904       -8.4607459200       -1.0853686165    2.0022220223E-03    1.9917007630E-03    1.0521259321E-05
       933.8575573904       -8.2299849200       -1.0570987050    1.9826108304E-03    1.9973352277E-03   -1.4724397285E-05
       934.0883183904       -7.9992239200       -1.0280516544    1.9673752291E-03    2.0092626531E-03   -4.1887423999E-05
       934.3190793904       -7.7684629200       -0.9981597280    1.9565346887E-03    2.0270741447E-03   -7.0539456015E-05
       934.5498403904       -7.5377019200       -0.9673444414    1.9504006270E-03    2.0501152027E-03   -9.9714575763E-05
       934.7806013904       -7.3069409200       -0.9355147817    1.9497999138E-03    2.0777419905E-03   -1.2794207671E-04
       935.0113623904       -7.0761799200       -0.9025632898    1.9563597449E-03    2.1096545107E-03   -1.5329476589E-04
       935.2421233904       -6.8454189200       -0.8683622961    1.9719535671E-03    2.1454017494E-03   -1.7344818231E-04
       935.4728843904       -6.6146579200       -0.8327578016    1.9988910971E-03    2.1846546213E-03   -1.8576352412E-04
       935.7036453904       -6.3838969200       -0.7955615259    2.0397961861E-03    2.2272021130E-03   -1.8740592683E-04
       935.9344063904       -6.1531359200       -0.7565386134    2.0971947611E-03    2.2727176744E-03   -1.7552291332E-04
       936.1651673904       -5.9223749200       -0.7153902843    2.1730021589E-03    2.3212655657E-03   -1.4826340681E-04
       936.3959283904       -5.6916139200       -0.6717259790    2.2678199012E-03    2.3730616432E-03   -1.0524174204E-04
       936.6266893904       -5.4608529200       -0.6250186794    2.3811978557E-03    2.4271753563E-03   -4.5977500637E-05
       936.8574503904       -5.2300919200       -0.5745266819    2.5101191980E-03    2.4833558468E-03    2.6763351241E-05
       937.0882113904       -4.9993309200       -0.5191468389    2.6484200919E-03    2.5415551368E-03    1.0686495512E-04
       937.3189723904       -4.7685699200       -0.4571061280    2.7867597060E-03    2.6015543912E-03    1.8520531477E-04
       937.5497333904       -4.5378089200       -0.3851993912    2.9148026035E-03    2.6631302766E-03    2.5167232693E-04
       937.7804943904       -4.3070479200       -0.2963294275    3.0244498479E-03    2.7262001298E-03    2.9824971807E-04
       938.1150533904       -3.9724889200        0.0000000000    3.1442225567E-03    2.8198940927E-03    3.2432846393E-04
       938.2420163904       -3.8455259200        0.1825479745    3.1783431294E-03    2.8560843998E-03    3.2225872963E-04
       938.4727773904       -3.6147649200        0.3064167222    3.2278762669E-03    2.9226423309E-03    3.0523393597E-04
       938.7035383904       -3.3840039200        0.3930122759    3.2661670806E-03    2.9900022505E-03    2.7616483011E-04
       938.9342993904       -3.1532429200        0.4637090722    3.2995606594E-03    3.0581640080E-03    2.4139665146E-04
       939.0888333904       -2.9987089200        0.5055555093    3.3222168816E-03    3.1040839495E-03    2.1813293211E-04
       939.1650603904       -2.9224819200        0.5249700293    3.3342218539E-03    3.1268475857E-03    2.0737426823E-04
       940.5888333904       -1.4987089200        0.8057845886    3.8564117690E-03    3.5559258498E-03    3.0048591917E-04
       942.0888333856        0.0012910752        1.0212695007    4.4864376183E-03    3.9970757329E-03    4.8936188542E-04
       943.5888333904        1.5012910800        1.1986215237    4.5902083183E-03    4.4053282740E-03    1.8488004436E-04
       945.0888333904        3.0012910800        1.3529212987    4.5398716459E-03    4.7690405410E-03   -2.2916889503E-04
       946.5888333904        4.5012910800        1.4913412186    4.5264450047E-03    5.0856964227E-03   -5.5925141803E-04
       948.0888333904        6.0012910800        1.6179619261    4.5390066834E-03    5.3579672269E-03   -8.1896054348E-04
       949.0888533904        7.0013110800        1.6971371718    4.6439908644E-03    5.5174236221E-03   -8.7343275774E-04
       949.5888333904        7.5012910800        1.7353684326    4.7069174504E-03    5.5912650845E-03   -8.8434763405E-04
       969.0888534104       27.0013111000        2.8512523993    7.2637113340E-03    6.5970659196E-03    6.6664541446E-04
       989.0888534104       47.0013111000        3.6577322579    6.1514116167E-03    6.5371376558E-03   -3.8572603907E-04
      1009.0888534104       67.0013111000        4.3160596784    6.0072041716E-03    6.1713115100E-03   -1.6410733843E-04
      1029.0888534104       87.0013111000        4.8864854015    6.4127024299E-03    5.8475005116E-03    5.6520191824E-04
      1049.0888533104      107.0013110000        5.3969531128    5.3367460979E-03    5.5707722019E-03   -2.3402610407E-04
