# # Once                                                         FEFF 10.0.0 
# # POT  SCF  60  4.0000   0, NO core-hole, AFOLP (folp(0)= 1.150)
# # Abs   Z=29 Rmt= 1.362 Rnm= 1.399 L3 shell
# #   RGRID 0.0100
# # Pot 1 Z=29 Rmt= 1.362 Rnm= 1.399
# # Gam_ch=5.960E-01 H-L exch Vi= 3.018E+00 Vr= 4.430E+00
# # Mu=-7.509E+00eV kf=2.224E+00 Vint=-1.698E+01eV Rs_int= 1.631
# FMS rfms= 8.0000
# # PATH  Rmax=-1.000,  Keep_limit= 0.00, Heap_limit 0.00  Pwcrit= 2.50%
#  S02=1.000  Temp=   0.00  Debye_temp=   0.00  Global_sig2= 0.00000
#  Energy zero shift, vr, vi    0.00000E+00   0.00000E+00
#  Curved wave amplitude ratio filter   4.000%
#     file         sig2 tot  cw amp ratio   deg  nlegs   reff  inp sig2
#     0/   0 paths used
#  xsedge+ 50, used to normalize mu           1.0000E+00
#  -----------------------------------------------------------------------
#  omega    e    k    mu    mu0     chi     @#
       875.3843642714      -68.1913067000       -3.8424496159    1.7428270888E-04    1.7424996522E-04    3.2743665579E-08
       885.3843642714      -58.1913067000       -3.4842124702    2.5776533583E-04    2.5770501640E-04    6.0319426860E-08
       895.3843642714      -48.1913067000       -3.0846479821    4.3040801828E-04    4.3029262722E-04    1.1539106336E-07
       905.3843642714      -38.1913067000       -2.6249513917    8.9684117128E-04    8.9656058316E-04    2.8058812173E-07
       906.8843642714      -36.6913067000       -2.5488562279    1.0335715230E-03    1.0332212755E-03    3.5024749285E-07
       908.3843642714      -35.1913067000       -2.4704179920    1.2054911517E-03    1.2050305785E-03    4.6057326770E-07
       909.8843642714      -33.6913067000       -2.3894062998    1.4257939969E-03    1.4251477885E-03    6.4620840154E-07
       911.3843642714      -32.1913067000       -2.3055497990    1.7144662164E-03    1.7134898910E-03    9.7632538495E-07
       912.8843642714      -30.6913067000       -2.2185259263    2.1026080944E-03    2.1010147343E-03    1.5933601522E-06
       914.3843642714      -29.1913067000       -2.1279462215    2.6408937148E-03    2.6380944011E-03    2.7993136310E-06
       915.3843642714      -28.1913067000       -2.0653539334    3.1233316953E-03    3.1191028064E-03    4.2288889378E-06
       915.8843642714      -27.6913067000       -2.0333354267    3.4152639822E-03    3.4100154460E-03    5.2485362335E-06
       916.4905242714      -27.0851467000       -1.9938293403    3.8264746157E-03    3.8196032752E-03    6.8713405469E-06
       917.5966842714      -25.9789867000       -1.9196415240    4.7885867292E-03    4.7771705969E-03    1.1416132341E-05
       918.7028442714      -24.8728267000       -1.8424688049    6.1405357109E-03    6.1214618865E-03    1.9073824476E-05
       919.8090042714      -23.7666667000       -1.7619191884    8.0910152016E-03    8.0602004835E-03    3.0814718140E-05
       920.9151642714      -22.6605067000       -1.6775062946    1.0956728034E-02    1.0913862790E-02    4.2865243859E-05
       922.0213242714      -21.5543467000       -1.5886144037    1.5131808334E-02    1.5104439630E-02    2.7368704244E-05
       923.1274842714      -20.4481867000       -1.4944442622    2.0743026777E-02    2.0854816427E-02   -1.1178965016E-04
       924.2336442714      -19.3420267000       -1.3939266775    2.6591762077E-02    2.7052058035E-02   -4.6029595751E-04
       925.3398042714      -18.2358667000       -1.2855736947    2.9441119194E-02    3.0046019124E-02   -6.0489993021E-04
       926.4459642714      -17.1297067000       -1.1672051975    2.7019838047E-02    2.7163095686E-02   -1.4325763900E-04
       927.5521242714      -16.0235467000       -1.0353917176    2.1438937810E-02    2.1151014239E-02    2.8792357110E-04
       928.6582842714      -14.9173867000       -0.8841402856    1.6015867852E-02    1.5613842662E-02    4.0202519024E-04
       929.7644442714      -13.8112267000       -0.7009794103    1.2001172859E-02    1.1626267918E-02    3.7490494030E-04
       930.8706042714      -12.7050667000       -0.4483750766    9.2826715327E-03    8.9624241994E-03    3.2024733323E-04
       931.6365642714      -11.9391067000        0.0000000000    7.9555507803E-03    7.6713387427E-03    2.8421203760E-04
       933.0829242714      -10.4927467000        0.6161360666    6.2721785885E-03    6.0431425603E-03    2.2903602820E-04
       934.1890842614       -9.3865867100        0.8185081654    5.4682957068E-03    5.2678330807E-03    2.0046262614E-04
       935.2952442614       -8.2804267100        0.9799426146    4.9375021013E-03    4.7511701669E-03    1.8633193435E-04
       935.3843442614       -8.1913267100        0.9918030885    4.9041657043E-03    4.7183112671E-03    1.8585443723E-04
       936.8843442614       -6.6913267100        1.1736165685    4.5092942543E-03    4.3210229768E-03    1.8827127753E-04
       938.3843442614       -5.1913267100        1.3308186303    4.3179052187E-03    4.1277267044E-03    1.9017851429E-04
       939.8843442614       -3.6913267100        1.4713194135    4.2321403792E-03    4.0575756551E-03    1.7456472404E-04
       941.3843442614       -2.1913267100        1.5995259277    4.2049361527E-03    4.0707262810E-03    1.3420987161E-04
       942.8843442604       -0.6913267110        1.7181925301    4.1919397664E-03    4.1409118879E-03    5.1027878516E-05
       944.3843442604        0.8086732890        1.8291769078    4.1756296264E-03    4.2503728782E-03   -7.4743251819E-05
       945.3843642614        1.8086932900        1.8995688842    4.1690513753E-03    4.3386247686E-03   -1.6957339326E-04
       945.8843442614        2.3086732900        1.9338019285    4.1692560712E-03    4.3860797625E-03   -2.1682369127E-04
       965.3843642714       21.8086933000        2.9761935124    6.3347033827E-03    5.9758343145E-03    3.5886906824E-04
       985.3843642714       41.8086933000        3.7559411205    6.1095208173E-03    6.3346565205E-03   -2.2513570320E-04
      1005.3843642714       61.8086933000        4.3995976609    5.9671279684E-03    6.0883582741E-03   -1.2123030570E-04
      1025.3843642714       81.8086933000        4.9604256774    6.2235681910E-03    5.7943191758E-03    4.2924901529E-04
      1045.3843639714      101.8086930000        5.4639902662    5.3004281734E-03    5.5318915510E-03   -2.3146337760E-04
