# # Once                                                         FEFF 10.0.0 
# # POT  SCF  60  4.0000   0, NO core-hole, AFOLP (folp(0)= 1.150)
# # Abs   Z=29 Rmt= 1.362 Rnm= 1.399 L3 shell
# #   RGRID 0.0100
# # Pot 1 Z=29 Rmt= 1.362 Rnm= 1.399
# # Gam_ch=5.960E-01 H-L exch Vi= 3.265E+00 Vr=-2.039E+01
# # Mu=-1.481E+01eV kf=2.344E+00 Vint=-1.673E+01eV Rs_int= 1.547
# FMS rfms= 8.0000
# # PATH  Rmax=-1.000,  Keep_limit= 0.00, Heap_limit 0.00  Pwcrit= 2.50%
#  S02=1.000  Temp=   0.00  Debye_temp=   0.00  Global_sig2= 0.00000
#  Energy zero shift, vr, vi    0.00000E+00   0.00000E+00
#  Curved wave amplitude ratio filter   4.000%
#     file         sig2 tot  cw amp ratio   deg  nlegs   reff  inp sig2
#     0/   0 paths used
#  xsedge+ 50, used to normalize mu           1.0000E+00
#  -----------------------------------------------------------------------
#  omega    e    k    mu    mu0     chi     @#
       874.7516788075      -76.1261213000       -4.6308547214    8.6026422222E-05    8.6024116048E-05    2.3061742759E-09
       884.7516788075      -66.1261213000       -4.3382174200    1.2265562889E-04    1.2265369572E-04    1.9331713912E-09
       894.7516788075      -56.1261213000       -4.0243569327    1.9717773748E-04    1.9717476371E-04    2.9737662914E-09
       904.7516788075      -46.1261213000       -3.6838519728    3.9659882035E-04    3.9656619554E-04    3.2624809740E-08
       906.2516788075      -44.6261213000       -3.6300223611    4.5500138000E-04    4.5495000564E-04    5.1374353967E-08
       907.7516788075      -43.1261213000       -3.5753826410    5.2847287497E-04    5.2839048764E-04    8.2387330031E-08
       909.2516788075      -41.6261213000       -3.5198946027    6.2265925399E-04    6.2252448158E-04    1.3477240834E-07
       910.7516788075      -40.1261213000       -3.4635178432    7.4612868189E-04    7.4590322680E-04    2.2545508888E-07
       912.2516788075      -38.6261213000       -3.4062081096    9.1215593552E-04    9.1176908826E-04    3.8684726096E-07
       913.7516788075      -37.1261213000       -3.3479173631    1.1422071290E-03    1.1415242960E-03    6.8283295064E-07
       914.7516788075      -36.1261213000       -3.3084866172    1.3480177189E-03    1.3470036777E-03    1.0140412022E-06
       915.2516788075      -35.6261213000       -3.2885935679    1.4723012329E-03    1.4710595357E-03    1.2416971296E-06
       915.9400388075      -34.9377613000       -3.2610084799    1.6729348922E-03    1.6712856667E-03    1.6492254623E-06
       917.1283988075      -33.7494013000       -3.2128286703    2.1261178911E-03    2.1233998900E-03    2.7180011314E-06
       918.3167588075      -32.5610413000       -3.1639156717    2.7759289070E-03    2.7714583592E-03    4.4705477707E-06
       919.5051188075      -31.3726813000       -3.1142343905    3.7299660526E-03    3.7229387437E-03    7.0273089586E-06
       920.6934788075      -30.1843213000       -3.0637473130    5.1429398793E-03    5.1337570879E-03    9.1827913890E-06
       921.8818388075      -28.9959613000       -3.0124146313    7.1587337598E-03    7.1546009509E-03    4.1328088268E-06
       923.0701988075      -27.8076013000       -2.9601916358    9.6115917159E-03    9.6361007962E-03   -2.4509080236E-05
       924.2585588075      -26.6192413000       -2.9070309310    1.1452178480E-02    1.1519944287E-02   -6.7765807448E-05
       925.4469188075      -25.4308813000       -2.8528795004    1.1229290519E-02    1.1287297134E-02   -5.8006615063E-05
       926.6352788075      -24.2425213000       -2.7976802722    9.1933626648E-03    9.2069936978E-03   -1.3631033004E-05
       927.8236388075      -23.0541613000       -2.7413696422    6.8612100623E-03    6.8521658844E-03    9.0441779210E-06
       929.0119988075      -21.8658013000       -2.6838779735    5.0370023666E-03    5.0215849363E-03    1.5417430273E-05
       930.2003588075      -20.6774413000       -2.6251273468    3.7756165236E-03    3.7571165819E-03    1.8499941754E-05
       931.3887188075      -19.4890813000       -2.5650317541    2.9277037800E-03    2.9055533439E-03    2.2150436067E-05
       932.5770788075      -18.3007213000       -2.5034936608    2.3550331839E-03    2.3288686739E-03    2.6164510080E-05
       933.7654388075      -17.1123613000       -2.4404044688    1.9632240244E-03    1.9332527590E-03    2.9971265405E-05
       934.7516788075      -16.1261213000       -2.3867796227    1.7319178506E-03    1.6985963070E-03    3.3321543625E-05
       934.9537988075      -15.9240013000       -2.3756403362    1.6924160763E-03    1.6583197911E-03    3.4096285150E-05
       936.2516788075      -14.6261213000       -2.3028273821    1.4924857821E-03    1.4523388966E-03    4.0146885466E-05
       937.7516788075      -13.1261213000       -2.2156967783    1.3527074980E-03    1.3043940164E-03    4.8313481596E-05
       939.2516788075      -11.6261213000       -2.1249962819    1.2737123512E-03    1.2182340584E-03    5.5478292787E-05
       940.7516788075      -10.1261213000       -2.0302480227    1.2405646966E-03    1.1797686181E-03    6.0796078432E-05
       942.2516787875       -8.6261213200       -1.9308558838    1.2434849168E-03    1.1796188689E-03    6.3866047941E-05
       943.7516787875       -7.1261213200       -1.8260619595    1.2741100507E-03    1.2113722891E-03    6.2737761648E-05
       944.7516787875       -6.1261213200       -1.7527218914    1.3063355343E-03    1.2478685740E-03    5.8466960224E-05
       945.2516787875       -5.6261213200       -1.7148760605    1.3253347665E-03    1.2703043299E-03    5.5030436647E-05
       956.4560787875        5.5782786800        0.0000000000    2.0702156753E-03    2.3046815779E-03   -2.3446590254E-04
       984.7516788075       33.8738787000        2.7251969015    5.2382526079E-03    5.0883087186E-03    1.4994388933E-04
      1004.7516788075       53.8738787000        3.5603459351    5.4414460185E-03    5.5982659967E-03   -1.5681997818E-04
      1024.7516788075       73.8738787000        4.2338431954    5.8415426023E-03    5.5696651851E-03    2.7187741712E-04
      1044.7516788075       93.8738787000        4.8140208387    5.2266044027E-03    5.4117029592E-03   -1.8509855654E-04
      1064.7516791075      113.8738790000        5.3314313236    5.0392246420E-03    5.2070237440E-03   -1.6779910205E-04
      1084.7516791075      133.8738790000        5.8028895119    5.2370427395E-03    4.9772202460E-03    2.5982249352E-04
