# # Once                                                         FEFF 10.0.0 
# # POT  SCF  60  4.0000   0, NO core-hole, AFOLP (folp(0)= 1.150)
# # Abs   Z=29 Rmt= 1.362 Rnm= 1.399 L3 shell
# #   RGRID 0.0100
# # Pot 1 Z=29 Rmt= 1.362 Rnm= 1.399
# # Gam_ch=5.960E-01 H-L exch Vi= 2.380E-02 Vr= 8.703E-01
# # Mu=-7.264E+00eV kf=2.027E+00 Vint=-1.637E+01eV Rs_int= 1.789
# FMS rfms= 8.0000
# # PATH  Rmax=-1.000,  Keep_limit= 0.00, Heap_limit 0.00  Pwcrit= 2.50%
#  S02=1.000  Temp=   0.00  Debye_temp=   0.00  Global_sig2= 0.00000
#  Energy zero shift, vr, vi    0.00000E+00   0.00000E+00
#  Curved wave amplitude ratio filter   4.000%
#     file         sig2 tot  cw amp ratio   deg  nlegs   reff  inp sig2
#     0/   0 paths used
#  xsedge+ 50, used to normalize mu           1.0000E+00
#  -----------------------------------------------------------------------
#  omega    e    k    mu    mu0     chi     @#
       883.3873320146      -59.9431670000       -3.6875870420    1.1484026547E-05    1.1191265997E-05    2.9276054996E-07
       893.3873320146      -49.9431670000       -3.3126448163    1.5723916134E-05    1.5249098007E-05    4.7481812674E-07
       903.3873320146      -39.9431670000       -2.8894519056    2.3447770062E-05    2.2561345800E-05    8.8642426189E-07
       913.3873320146      -29.9431670000       -2.3925404494    4.1060730034E-05    3.8938456547E-05    2.1222734871E-06
       914.8873320146      -28.4431670000       -2.3087977850    4.5738103913E-05    4.3232797770E-05    2.5053061432E-06
       916.3873320146      -26.9431670000       -2.2219012237    5.1204756571E-05    4.8208968660E-05    2.9957879110E-06
       917.8873320146      -25.4431670000       -2.1314647622    5.8608668438E-05    5.4970176478E-05    3.6384919601E-06
       919.3873320146      -23.9431670000       -2.0370174997    6.7703046502E-05    6.3204876732E-05    4.4981697705E-06
       920.8873320146      -22.4431670000       -1.9379724659    7.9620492945E-05    7.3939164009E-05    5.6813289355E-06
       922.3873320146      -20.9431670000       -1.8335852589    9.5850892731E-05    8.8486030802E-05    7.3648619290E-06
       923.3873320146      -19.9431670000       -1.7605586793    1.1031232649E-04    1.0140235152E-04    8.9099749708E-06
       923.4952650146      -19.8352340000       -1.7524947216    1.1210640057E-04    1.0300274750E-04    9.1036530675E-06
       923.6031980146      -19.7273010000       -1.7443935474    1.1395300937E-04    1.0464963775E-04    9.3033716178E-06
       923.7111310146      -19.6193680000       -1.7362545744    1.1585457934E-04    1.0634520111E-04    9.5093782218E-06
       923.8190640146      -19.5114350000       -1.7280772686    1.1781355196E-04    1.0809162111E-04    9.7219308473E-06
       923.8873320146      -19.4431670000       -1.7228849424    1.1908339491E-04    1.0922352339E-04    9.8598715293E-06
       923.9269970146      -19.4035020000       -1.7198610212    1.1983247167E-04    1.0989117260E-04    9.9412990666E-06
       924.0349300146      -19.2955690000       -1.7116053337    1.2191398477E-04    1.1174621471E-04    1.0167770057E-05
       924.1428630146      -19.1876360000       -1.7033096326    1.2406094139E-04    1.1365929538E-04    1.0401646007E-05
       924.2507960146      -19.0797030000       -1.6949733932    1.2627638619E-04    1.1563314618E-04    1.0643240009E-05
       924.3587290146      -18.9717700000       -1.6865959512    1.2856336215E-04    1.1767047251E-04    1.0892889636E-05
       924.4666620146      -18.8638370000       -1.6781766262    1.3092537403E-04    1.1977442494E-04    1.1150949089E-05
       924.5745950146      -18.7559040000       -1.6697149121    1.3336605730E-04    1.2194826511E-04    1.1417792197E-05
       924.6825280146      -18.6479710000       -1.6612100971    1.3588919318E-04    1.2419538029E-04    1.1693812891E-05
       924.7904610146      -18.5400380000       -1.6526613870    1.3849888940E-04    1.2651944559E-04    1.1979443802E-05
       924.8983940146      -18.4321050000       -1.6440683559    1.4119954433E-04    1.2892442155E-04    1.2275122784E-05
       925.0063270146      -18.3241720000       -1.6354301752    1.4399576473E-04    1.3141441756E-04    1.2581347169E-05
       925.1142600146      -18.2162390000       -1.6267461255    1.4689256071E-04    1.3399392368E-04    1.2898637029E-05
       925.2221930146      -18.1083060000       -1.6180154684    1.4989528720E-04    1.3666771852E-04    1.3227568690E-05
       925.3301260146      -18.0003730000       -1.6092373790    1.5300974698E-04    1.3944096405E-04    1.3568782931E-05
       925.4380590146      -17.8924400000       -1.6004111435    1.5624209967E-04    1.4231910597E-04    1.3922993697E-05
       925.5459920146      -17.7845070000       -1.5915360945    1.5959922657E-04    1.4530817718E-04    1.4291049389E-05
       925.6539250146      -17.6765740000       -1.5826111418    1.6308833022E-04    1.4841434313E-04    1.4673987091E-05
       925.7618580146      -17.5686410000       -1.5736355716    1.6671771688E-04    1.5164462488E-04    1.5073091999E-05
       925.8697910146      -17.4607080000       -1.5646085128    1.7049629126E-04    1.5500626314E-04    1.5490028120E-05
       925.9777240146      -17.3527750000       -1.5555291374    1.7443377357E-04    1.5850734183E-04    1.5926431746E-05
       926.0856570146      -17.2448420000       -1.5463964551    1.7853892258E-04    1.6215635393E-04    1.6382568647E-05
       926.1935900146      -17.1369090000       -1.5372095157    1.8281658028E-04    1.6596281180E-04    1.6853768475E-05
       926.3015230146      -17.0289760000       -1.5279673407    1.8726980578E-04    1.6993674292E-04    1.7333062866E-05
       926.4094560146      -16.9210430000       -1.5186688515    1.9191260016E-04    1.7408937789E-04    1.7823222274E-05
       926.5173890146      -16.8131100000       -1.5093130777    1.9676722279E-04    1.7843261655E-04    1.8334606246E-05
       926.6253220146      -16.7051770000       -1.4998990184    2.0185338727E-04    1.8297998785E-04    1.8873399420E-05
       926.7332550146      -16.5972440000       -1.4904254978    2.0718927871E-04    1.8774599093E-04    1.9443287776E-05
       926.8411880146      -16.4893110000       -1.4808913028    2.1279145703E-04    1.9274675822E-04    2.0044698803E-05
       926.9491210146      -16.3813780000       -1.4712954708    2.1867946518E-04    1.9799967774E-04    2.0679787435E-05
       927.0570540146      -16.2734450000       -1.4616364239    2.2486262997E-04    2.0352287828E-04    2.1339751694E-05
       927.1649870146      -16.1655120000       -1.4519132669    2.3135526798E-04    2.0933550236E-04    2.2019765611E-05
       927.2729200146      -16.0575790000       -1.4421245556    2.3817891885E-04    2.1545899562E-04    2.2719923229E-05
       927.3808530146      -15.9496460000       -1.4322687971    2.4536613167E-04    2.2191772698E-04    2.3448404690E-05
       927.4887860146      -15.8417130000       -1.4223449718    2.5295244739E-04    2.2873928058E-04    2.4213166816E-05
       927.5967190146      -15.7337800000       -1.4123513436    2.6097494413E-04    2.3595433449E-04    2.5020609638E-05
       927.7046520146      -15.6258470000       -1.4022863442    2.6947355408E-04    2.4359719152E-04    2.5876362560E-05
       927.8125850146      -15.5179140000       -1.3921487313    2.7849180044E-04    2.5170606367E-04    2.6785736765E-05
       927.9205180146      -15.4099810000       -1.3819367529    2.8807818639E-04    2.6032371089E-04    2.7754475495E-05
       928.0284510146      -15.3020480000       -1.3716486705    2.9828752389E-04    2.6949821860E-04    2.8789305291E-05
       928.1363840146      -15.1941150000       -1.3612829930    3.0918141408E-04    2.7928346071E-04    2.9897953369E-05
       928.2443170146      -15.0861820000       -1.3508376191    3.2083020424E-04    2.8974049570E-04    3.1089708536E-05
       928.3522500146      -14.9782490000       -1.3403108443    3.3331419998E-04    3.0093859956E-04    3.2375600419E-05
       928.4601830146      -14.8703160000       -1.3297008553    3.4672534458E-04    3.1295630845E-04    3.3769036129E-05
       928.5681160146      -14.7623830000       -1.3190054425    3.6117010317E-04    3.2588372993E-04    3.5286373235E-05
       928.6760490146      -14.6544500000       -1.3082225512    3.7677219485E-04    3.3982404207E-04    3.6948152776E-05
       928.7839820146      -14.5465170000       -1.2973500823    3.9367728394E-04    3.5489624293E-04    3.8781041002E-05
       928.8919150146      -14.4385840000       -1.2863857231    4.1205829082E-04    3.7123785398E-04    4.0820436841E-05
       928.9998480146      -14.3306510000       -1.2753271870    4.3212429810E-04    3.8900948317E-04    4.3114814923E-05
       929.1077810146      -14.2227180000       -1.2641717921    4.5413049054E-04    4.0839826376E-04    4.5732226778E-05
       929.2157140146      -14.1147850000       -1.2529171212    4.7839340441E-04    4.2962488846E-04    4.8768515951E-05
       929.3236470146      -14.0068520000       -1.2415604744    5.0531214072E-04    4.5295046232E-04    5.2361678402E-05
       929.4315800146      -13.8989190000       -1.2300988975    5.3539497917E-04    4.7868492912E-04    5.6710050044E-05
       929.5395130146      -13.7909860000       -1.2185295607    5.6929997435E-04    5.0719824212E-04    6.2101732229E-05
       929.6474460146      -13.6830530000       -1.2068494089    6.0789541718E-04    5.3894688626E-04    6.8948530924E-05
       929.7553790146      -13.5751200000       -1.1950550147    6.5228843298E-04    5.7446137266E-04    7.7827060328E-05
       929.8633120146      -13.4671870000       -1.1831430517    7.0390525763E-04    6.1442531337E-04    8.9479944255E-05
       929.9712450146      -13.3592540000       -1.1711098414    7.6431253798E-04    6.5965912006E-04    1.0465341792E-04
       930.0791780146      -13.2513210000       -1.1589518825    8.3470440625E-04    7.1118111355E-04    1.2352329270E-04
       930.1871110146      -13.1433880000       -1.1466649286    9.1496657632E-04    7.7028787440E-04    1.4467870192E-04
       930.2950440146      -13.0354550000       -1.1342448345    1.0037264100E-03    8.3862533675E-04    1.6510107321E-04
       930.4029770146      -12.9275220000       -1.1216873673    1.1024776441E-03    9.1829707617E-04    1.8418056795E-04
       930.5109100146      -12.8195890000       -1.1089875726    1.2195884689E-03    1.0120152502E-03    2.0757321873E-04
       930.6188430146      -12.7116560000       -1.0961407460    1.3651763461E-03    1.1233785846E-03    2.4179776147E-04
       930.7267760146      -12.6037230000       -1.0831414595    1.5422887240E-03    1.2571126886E-03    2.8517603540E-04
       930.8347090146      -12.4957900000       -1.0699843054    1.7414509638E-03    1.4196440130E-03    3.2180695086E-04
       930.9426420146      -12.3878570000       -1.0566633363    1.9467192419E-03    1.6196188326E-03    3.2710040934E-04
       931.0505750146      -12.2799240000       -1.0431723277    2.1617867636E-03    1.8690640222E-03    2.9272274135E-04
       931.1585080146      -12.1719910000       -1.0295044398    2.4128782887E-03    2.1846135583E-03    2.2826473034E-04
       931.2664410146      -12.0640580000       -1.0156527411    2.7150053573E-03    2.5896623580E-03    1.2534299932E-04
       931.3743740146      -11.9561250000       -1.0016094464    3.0696732317E-03    3.1170803108E-03   -4.7407079135E-05
       931.4823070146      -11.8481920000       -0.9873664882    3.4881143501E-03    3.8123217689E-03   -3.2420741876E-04
       931.5902400146      -11.7402590000       -0.9729149884    3.9840589221E-03    4.7362375025E-03   -7.5217858040E-04
       931.6981730146      -11.6323260000       -0.9582455672    4.5884559547E-03    5.9625502812E-03   -1.3740943265E-03
       931.8061060146      -11.5243930000       -0.9433480868    5.3630011743E-03    7.5629498950E-03   -2.1999487207E-03
       931.9140390146      -11.4164600000       -0.9282115090    6.3404762960E-03    9.5648983677E-03   -3.2244220717E-03
       932.0219720146      -11.3085270000       -0.9128239397    7.4142420086E-03    1.1880700345E-02   -4.4664583369E-03
       932.1299050146      -11.2005940000       -0.8971725534    8.3161122485E-03    1.4219461259E-02   -5.9033490109E-03
       932.2378380146      -11.0926610000       -0.8812432334    8.8048815231E-03    1.6054335813E-02   -7.2494542897E-03
       932.3457710146      -10.9847280000       -0.8650205945    9.0228053428E-03    1.6830443069E-02   -7.8076377258E-03
       932.4537040146      -10.8767950000       -0.8484878754    9.5874415128E-03    1.6396510208E-02   -6.8090686956E-03
       932.5616370146      -10.7688620000       -0.8316264871    1.0968420028E-02    1.5121705113E-02   -4.1532850857E-03
       932.6695700146      -10.6609290000       -0.8144161466    1.2909070402E-02    1.3537921926E-02   -6.2885152401E-04
       932.7775030146      -10.5529960000       -0.7968341436    1.4945806518E-02    1.2014397841E-02    2.9314086770E-03
       932.8854360146      -10.4450630000       -0.7788553427    1.6982965073E-02    1.0710919337E-02    6.2720457355E-03
       932.9933690146      -10.3371300000       -0.7604516360    1.9069673778E-02    9.6597065429E-03    9.4099672349E-03
       933.1013020146      -10.2291970000       -0.7415913182    2.1312858946E-02    8.8383918257E-03    1.2474467120E-02
       933.2092350146      -10.1212640000       -0.7222386925    2.3785512252E-02    8.2090177451E-03    1.5576494507E-02
       933.3171680146      -10.0133310000       -0.7023529514    2.5951538034E-02    7.7336971854E-03    1.8217840849E-02
       933.4251009646       -9.9053980500       -0.6818875720    2.6555076424E-02    7.3817500790E-03    1.9173326345E-02
       933.5330339646       -9.7974650500       -0.6607887005    2.4780470973E-02    7.1294982963E-03    1.7650972677E-02
       933.6409669646       -9.6895320500       -0.6389935465    2.1276825027E-02    6.9565948920E-03    1.4320230135E-02
       933.7488999646       -9.5815990500       -0.6164282372    1.7606834831E-02    6.8482861753E-03    1.0758548656E-02
       933.8568329646       -9.4736660500       -0.5930048601    1.4707584015E-02    6.7931077672E-03    7.9144762477E-03
       933.9647659646       -9.3657330500       -0.5686173846    1.2655428505E-02    6.7821346683E-03    5.8732938372E-03
       934.0726989646       -9.2578000500       -0.5431360320    1.1237796248E-02    6.8066778910E-03    4.4311183568E-03
       934.1806319646       -9.1498670500       -0.5163988463    1.0253681101E-02    6.8620275431E-03    3.3916535576E-03
       934.2885649646       -9.0419340500       -0.4881995367    9.5619201830E-03    6.9421222671E-03    2.6197979159E-03
       934.3964979646       -8.9340010500       -0.4582682839    9.0719180681E-03    7.0422830881E-03    2.0296349800E-03
       934.5044309646       -8.8260680500       -0.4262403382    8.7254063291E-03    7.1587601877E-03    1.5666461414E-03
       934.6123639646       -8.7181350500       -0.3916016068    8.4837353010E-03    7.2878372555E-03    1.1958980454E-03
       934.7202969646       -8.6102020500       -0.3535856864    8.3201409854E-03    7.4262911112E-03    8.9384987420E-04
       934.8282299646       -8.5022690500       -0.3109563370    8.2151951891E-03    7.5706167738E-03    6.4457841529E-04
       934.9361629646       -8.3943360500       -0.2614667271    8.1554747598E-03    7.7185841212E-03    4.3689063866E-04
       935.0440959646       -8.2864030500       -0.2000896346    8.1295065060E-03    7.8667007054E-03    2.6280580059E-04
       935.1966319646       -8.1338670500        0.0000000000    8.1357133364E-03    8.0724941446E-03    6.3219191743E-05
       935.2599619646       -8.0705370500        0.1289267871    8.1491975960E-03    8.1553017609E-03   -6.1041649144E-06
       935.3678949646       -7.9626040500        0.2120167617    8.1827039057E-03    8.2912169335E-03   -1.0851302775E-04
       935.4758279646       -7.8546710500        0.2707029763    8.2260386369E-03    8.4194922179E-03   -1.9345358103E-04
       935.5837609646       -7.7467380500        0.3187617954    8.2741547217E-03    8.5377099668E-03   -2.6355524502E-04
       935.6916939646       -7.6388050500        0.3604692354    8.3247814712E-03    8.6462375478E-03   -3.2145607653E-04
       935.7996269646       -7.5308720500        0.3978279325    8.3725698418E-03    8.7425308104E-03   -3.6996096861E-04
       935.9075599646       -7.4229390500        0.4319676739    8.4156797126E-03    8.8278098799E-03   -4.1213016722E-04
       936.0154929646       -7.3150060500        0.4636000994    8.4490988323E-03    8.9002724366E-03   -4.5117360423E-04
       936.1234259646       -7.2070730500        0.4932079138    8.4774530553E-03    8.9664805452E-03   -4.8902748987E-04
       936.2313589646       -7.0991400500        0.5211362846    8.4988668320E-03    9.0274719674E-03   -5.2860513548E-04
       936.3392919646       -6.9912070500        0.5476422262    8.5029912234E-03    9.0768217045E-03   -5.7383048102E-04
       936.4472249646       -6.8832740500        0.5729231962    8.4878722925E-03    9.1147016540E-03   -6.2682936152E-04
       936.5551579646       -6.7753410500        0.5971348002    8.4519525810E-03    9.1410011749E-03   -6.8904859386E-04
       936.6630909646       -6.6674080500        0.6204022703    8.3956452738E-03    9.1570481988E-03   -7.6140292502E-04
       936.7710239646       -6.5594750500        0.6428280729    8.3201923056E-03    9.1641488606E-03   -8.4395655497E-04
       936.8789569646       -6.4515420500        0.6644975285    8.2253425638E-03    9.1614545024E-03   -9.3611193866E-04
       936.9868899646       -6.3436090500        0.6854822727    8.1149872031E-03    9.1516813911E-03   -1.0366941880E-03
       937.0948229646       -6.2356760500        0.7058434342    7.9894590854E-03    9.1336527008E-03   -1.1441936154E-03
       937.2027559646       -6.1277430500        0.7256334895    7.8532094461E-03    9.1096352481E-03   -1.2564258021E-03
       937.3106889646       -6.0198100500        0.7448979227    7.7087954915E-03    9.0800191521E-03   -1.3712236605E-03
       937.4186219646       -5.9118770500        0.7636765825    7.5595385247E-03    9.0458316472E-03   -1.4862931225E-03
       937.5265549646       -5.8039440500        0.7820044310    7.4077243471E-03    9.0070422557E-03   -1.5993179087E-03
       937.6344879646       -5.6960110500        0.7999124562    7.2563163042E-03    8.9644213098E-03   -1.7081050056E-03
       937.7424209646       -5.5880780500        0.8174282182    7.1080304244E-03    8.9185752070E-03   -1.8105447826E-03
       937.8503539646       -5.4801450500        0.8345764790    6.9661143254E-03    8.8709250164E-03   -1.9048106910E-03
       937.9582869646       -5.3722120500        0.8513794141    6.8316882054E-03    8.8208768050E-03   -1.9891885996E-03
       938.0662199646       -5.2642790500        0.8678570510    6.7073837837E-03    8.7695992871E-03   -2.0622155034E-03
       938.1741529646       -5.1563460500        0.8840276702    6.5946642024E-03    8.7172268517E-03   -2.1225626493E-03
       938.2820859646       -5.0484130500        0.8999077041    6.4956628622E-03    8.6647408506E-03   -2.1690779884E-03
       938.3900189646       -4.9404800500        0.9155123611    6.4104021099E-03    8.6110763578E-03   -2.2006742479E-03
       938.4979519646       -4.8325470500        0.9308554046    6.3407303447E-03    8.5570367593E-03   -2.2163064146E-03
       938.6058849646       -4.7246140500        0.9459497053    6.2883282386E-03    8.5033542708E-03   -2.2150260322E-03
       938.7138179646       -4.6166810500        0.9608068203    6.2550063290E-03    8.4507000201E-03   -2.1956936911E-03
       938.8217509646       -4.5087480500        0.9754377240    6.2405363689E-03    8.3976982981E-03   -2.1571619292E-03
       938.9296839646       -4.4008150500        0.9898523397    6.2466796190E-03    8.3448783005E-03   -2.0981986815E-03
