# # Once                                                         FEFF 10.0.0 
# # POT  SCF  60  4.0000   0, NO core-hole, AFOLP (folp(0)= 1.150)
# # Abs   Z=29 Rmt= 1.362 Rnm= 1.399 L3 shell
# #   RGRID 0.0100
# # Pot 1 Z=29 Rmt= 1.362 Rnm= 1.399
# # Gam_ch=5.960E-01 H-L exch Vi= 1.927E-02 Vr= 0.000E+00
# # Mu=-7.336E+00eV kf=2.024E+00 Vint=-1.635E+01eV Rs_int= 1.792
# FMS rfms= 8.0000
# # PATH  Rmax=-1.000,  Keep_limit= 0.00, Heap_limit 0.00  Pwcrit= 2.50%
#  S02=1.000  Temp=   0.00  Debye_temp=   0.00  Global_sig2= 0.00000
#  Energy zero shift, vr, vi    0.00000E+00   0.00000E+00
#  Curved wave amplitude ratio filter   4.000%
#     file         sig2 tot  cw amp ratio   deg  nlegs   reff  inp sig2
#     0/   0 paths used
#  xsedge+ 50, used to normalize mu           1.0000E+00
#  -----------------------------------------------------------------------
#  omega    e    k    mu    mu0     chi     @#
       883.5252521265      -59.8779122000       -3.7135567272    9.8337145046E-06    9.8860761039E-06   -5.2361599305E-08
       893.5252521265      -49.8779122000       -3.3415297474    1.3173083647E-05    1.3234097369E-05   -6.1013721476E-08
       903.5252521265      -39.8779122000       -2.9225226329    1.8968865356E-05    1.9024170251E-05   -5.5304894860E-08
       913.5252521265      -29.8779122000       -2.4323763586    3.1120118015E-05    3.1063504164E-05    5.6613850035E-08
       915.0252521265      -28.3779122000       -2.3500538316    3.4141412129E-05    3.4034352886E-05    1.0705924327E-07
       916.5252521265      -26.8779122000       -2.2647406964    3.7556963108E-05    3.7378509477E-05    1.7845363148E-07
       918.0252521265      -25.3779122000       -2.1760854377    4.2152118727E-05    4.1869494625E-05    2.8262410127E-07
       919.5252521265      -23.8779122000       -2.0836616011    4.7556569338E-05    4.7121187142E-05    4.3538219599E-07
       921.0252521265      -22.3779122000       -1.9869431492    5.4367791385E-05    5.3701796702E-05    6.6599468332E-07
       922.5252521265      -20.8779122000       -1.8852693975    6.3233039904E-05    6.2207393777E-05    1.0256461261E-06
       923.5252521265      -19.8779122000       -1.8143242405    7.0799800984E-05    6.9418198974E-05    1.3816020104E-06
       923.6316761265      -19.7714882000       -1.8066098751    7.1706173122E-05    7.0279093768E-05    1.4270793535E-06
       923.7381001265      -19.6650642000       -1.7988624863    7.2634697603E-05    7.1160420177E-05    1.4742774265E-06
       923.8445241265      -19.5586402000       -1.7910817050    7.3586284665E-05    7.2063007948E-05    1.5232767170E-06
       923.9509481265      -19.4522162000       -1.7832668554    7.4561997836E-05    7.2987836425E-05    1.5741614108E-06
       924.0252521265      -19.3779122000       -1.7777902327    7.5257869764E-05    7.3647015169E-05    1.6108545947E-06
       924.0573721265      -19.3457922000       -1.7754175477    7.5562525238E-05    7.3935501580E-05    1.6270236578E-06
       924.1637961265      -19.2393682000       -1.7675335635    7.6588966322E-05    7.4907007851E-05    1.6819584710E-06
       924.2702201265      -19.1329442000       -1.7596141343    7.7642317169E-05    7.5903249197E-05    1.7390679718E-06
       924.3766441265      -19.0265202000       -1.7516589618    7.8723676485E-05    7.6925216893E-05    1.7984595925E-06
       924.4830681265      -18.9200962000       -1.7436673734    7.9834157178E-05    7.7973903662E-05    1.8602535164E-06
       924.5894921265      -18.8136722000       -1.7356391116    8.0974978829E-05    7.9050406496E-05    1.9245723326E-06
       924.6959161265      -18.7072482000       -1.7275734186    8.2147486165E-05    8.0155937767E-05    1.9915483980E-06
       924.8023401265      -18.6008242000       -1.7194700152    8.3353015164E-05    8.1291687678E-05    2.0613274855E-06
       924.9087641265      -18.4944002000       -1.7113282414    8.4592958954E-05    8.2458892383E-05    2.1340665708E-06
       925.0151881265      -18.3879762000       -1.7031475469    8.5868931704E-05    8.3658988583E-05    2.2099431206E-06
       925.1216121265      -18.2815522000       -1.6949272425    8.7182505200E-05    8.4893362919E-05    2.2891422810E-06
       925.2280361265      -18.1751282000       -1.6866670015    8.8535492659E-05    8.6163614326E-05    2.3718783328E-06
       925.3344601265      -18.0687042000       -1.6783660440    8.9929783570E-05    8.7471382612E-05    2.4584009580E-06
       925.4408841265      -17.9622802000       -1.6700238903    9.1367427325E-05    8.8818427043E-05    2.5490002814E-06
       925.5473081265      -17.8558562000       -1.6616397919    9.2850662006E-05    9.0206619886E-05    2.6440421204E-06
       925.6537321265      -17.7494322000       -1.6532132393    9.4381827011E-05    9.1637833765E-05    2.7439932457E-06
       925.7601561265      -17.6430082000       -1.6447433859    9.5963700403E-05    9.3114258592E-05    2.8494418106E-06
       925.8665801265      -17.5365842000       -1.6362297544    9.7599513381E-05    9.4638241279E-05    2.9612721017E-06
       925.9730041265      -17.4301602000       -1.6276716579    9.9292657173E-05    9.6212060841E-05    3.0805963325E-06
       926.0794281265      -17.3237362000       -1.6190682597    1.0104709872E-04    9.7838428357E-05    3.2086703629E-06
       926.1858521265      -17.2173122000       -1.6104188999    1.0286527457E-04    9.9520172603E-05    3.3451019691E-06
       926.2922761265      -17.1108882000       -1.6017229005    1.0474502435E-04    1.0126025654E-04    3.4847678103E-06
       926.3987001265      -17.0044642000       -1.5929794306    1.0668224688E-04    1.0306201686E-04    3.6202300145E-06
       926.5051241265      -16.8980402000       -1.5841875701    1.0868305253E-04    1.0492904253E-04    3.7540099975E-06
       926.6115481265      -16.7916162000       -1.5753467114    1.1076052925E-04    1.0686520330E-04    3.8953259504E-06
       926.7179721265      -16.6851922000       -1.5664560248    1.1292433023E-04    1.0887485787E-04    4.0494723569E-06
       926.8243961265      -16.5787682000       -1.5575145888    1.1518106419E-04    1.1096283273E-04    4.2182314645E-06
       926.9308201265      -16.4723442000       -1.5485214555    1.1753770044E-04    1.1313443084E-04    4.4032695990E-06
       927.0372441265      -16.3659202000       -1.5394758571    1.1999997867E-04    1.1539514438E-04    4.6048342855E-06
       927.1436681265      -16.2594962000       -1.5303767243    1.2256383874E-04    1.1775016055E-04    4.8136781894E-06
       927.2500921265      -16.1530722000       -1.5212230965    1.2522910353E-04    1.2020437437E-04    5.0247291561E-06
       927.3565161265      -16.0466482000       -1.5120141950    1.2800056116E-04    1.2276348262E-04    5.2370785399E-06
       927.4629401265      -15.9402242000       -1.5027488621    1.3089042950E-04    1.2543417998E-04    5.4562495213E-06
       927.5693641265      -15.8338002000       -1.4934260474    1.3391265499E-04    1.2822453309E-04    5.6881218998E-06
       927.6757881265      -15.7273762000       -1.4840445242    1.3708049359E-04    1.3114338795E-04    5.9371056370E-06
       927.7822121265      -15.6209522000       -1.4746034608    1.4040726124E-04    1.3420079158E-04    6.2064696611E-06
       927.8886361265      -15.5145282000       -1.4651014880    1.4390633327E-04    1.3740755834E-04    6.4987749248E-06
       927.9950601265      -15.4081042000       -1.4555374863    1.4759258185E-04    1.4077590441E-04    6.8166774390E-06
       928.1014841265      -15.3016802000       -1.4459102246    1.5148214192E-04    1.4431919967E-04    7.1629422488E-06
       928.2079081265      -15.1952562000       -1.4362185051    1.5559304049E-04    1.4805251578E-04    7.5405247127E-06
       928.3143321265      -15.0888322000       -1.4264608645    1.5994547759E-04    1.5199247989E-04    7.9529976945E-06
       928.4207561265      -14.9824082000       -1.4166360160    1.6456225014E-04    1.5615789593E-04    8.4043542072E-06
       928.5271801265      -14.8759842000       -1.4067426269    1.6946894033E-04    1.6056984221E-04    8.8990981183E-06
       928.6336041265      -14.7695602000       -1.3967790885    1.7469495699E-04    1.6525236688E-04    9.4425901101E-06
       928.7400281265      -14.6631362000       -1.3867439655    1.8027351562E-04    1.7023232369E-04    1.0041191937E-05
       928.8464521265      -14.5567122000       -1.3766357697    1.8624355361E-04    1.7554073242E-04    1.0702821182E-05
       928.9528761265      -14.4502882000       -1.3664528016    1.9265085725E-04    1.8121295886E-04    1.1437898397E-05
       929.0593001265      -14.3438642000       -1.3561932985    1.9955005872E-04    1.8728951077E-04    1.2260547947E-05
       929.1657241265      -14.2374402000       -1.3458555890    2.0700777887E-04    1.9381745618E-04    1.3190322690E-05
       929.2721481265      -14.1310162000       -1.3354378571    2.1510603016E-04    2.0085128812E-04    1.4254742038E-05
       929.3785721265      -14.0245922000       -1.3249382553    2.2394744747E-04    2.0845488804E-04    1.5492559434E-05
       929.4849961265      -13.9181682000       -1.3143548216    2.3366209997E-04    2.1670337188E-04    1.6958728090E-05
       929.5914201265      -13.8117442000       -1.3036854326    2.4441701580E-04    2.2568523680E-04    1.8731779002E-05
       929.6978441265      -13.7053202000       -1.2929279605    2.5642666186E-04    2.3550452859E-04    2.0922133265E-05
       929.8042681265      -13.5988962000       -1.2820801879    2.6997754038E-04    2.4629109727E-04    2.3686443117E-05
       929.9106921265      -13.4924722000       -1.2711399287    2.8542908835E-04    2.5819425349E-04    2.7234834861E-05
       930.0171161265      -13.3860482000       -1.2601046895    3.0322037032E-04    2.7140209183E-04    3.1818278485E-05
       930.1235401265      -13.2796242000       -1.2489719527    3.2378571090E-04    2.8614227394E-04    3.7643436953E-05
       930.2299641265      -13.1732002000       -1.2377390446    3.4732015211E-04    3.0269717573E-04    4.4622976388E-05
       930.3363881265      -13.0667762000       -1.2264032993    3.7343757904E-04    3.2142011928E-04    5.2017459757E-05
       930.4428121265      -12.9603522000       -1.2149617948    4.0141876134E-04    3.4275767585E-04    5.8661085494E-05
       930.5492361265      -12.8539282000       -1.2034115144    4.3188162166E-04    3.6728009010E-04    6.4601531559E-05
       930.6556601265      -12.7475042000       -1.1917492508    4.6774886190E-04    3.9572034930E-04    7.2028512601E-05
       930.7620841265      -12.6410802000       -1.1799717738    5.1205035511E-04    4.2903455599E-04    8.3015799122E-05
       930.8685081265      -12.5346562000       -1.1680755528    5.6531959663E-04    4.6849407700E-04    9.6825519636E-05
       930.9749321265      -12.4282322000       -1.1560568761    6.2421130192E-04    5.1578761040E-04    1.0842369153E-04
       931.0813561265      -12.3218082000       -1.1439119769    6.8379471176E-04    5.7321170077E-04    1.1058301100E-04
       931.1877801265      -12.2153842000       -1.1316367443    7.4542136509E-04    6.4391846848E-04    1.0150289661E-04
       931.2942041265      -12.1089602000       -1.1192269375    8.1704988067E-04    7.3225875369E-04    8.4791126981E-05
       931.4006281265      -12.0025362000       -1.1066778851    9.0299138465E-04    8.4433018741E-04    5.8661197237E-05
       931.5070521265      -11.8961122000       -1.0939848439    1.0033576160E-03    9.8866452615E-04    1.4693089867E-05
       931.6134761265      -11.7896882000       -1.0811429394    1.1211977992E-03    1.1770983651E-03   -5.5900565836E-05
       931.7199001265      -11.6832642000       -1.0681465034    1.2602809698E-03    1.4255202827E-03   -1.6523931283E-04
       931.8263241265      -11.5768402000       -1.0549901276    1.4285065233E-03    1.7535967396E-03   -3.2509021631E-04
       931.9327481265      -11.4704162000       -1.0416674964    1.6424336640E-03    2.1814460633E-03   -5.3901239930E-04
       932.0391721265      -11.3639922000       -1.0281723023    1.9140518998E-03    2.7200931078E-03   -8.0604120797E-04
       932.1455961265      -11.2575682000       -1.0144975539    2.2228055002E-03    3.3537977352E-03   -1.1309922350E-03
       932.2520201265      -11.1511442000       -1.0006360495    2.5038074291E-03    4.0173479687E-03   -1.5135405396E-03
       932.3584441265      -11.0447202000       -0.9865797014    2.6857500573E-03    4.5810757491E-03   -1.8953256918E-03
       932.4648681265      -10.9382962000       -0.9723201690    2.7802952302E-03    4.8894479642E-03   -2.1091527340E-03
       932.5712921265      -10.8318722000       -0.9578483777    2.9369609913E-03    4.8701528177E-03   -1.9331918264E-03
       932.6777161265      -10.7254482000       -0.9431546981    3.3174880604E-03    4.5941661853E-03   -1.2766781249E-03
       932.7841401265      -10.6190242000       -0.9282283348    3.8984108251E-03    4.2020615190E-03   -3.0365069385E-04
       932.8905641265      -10.5126002000       -0.9130580221    4.5417585023E-03    3.8060864465E-03    7.3567205577E-04
       932.9969881265      -10.4061762000       -0.8976313322    5.2001335262E-03    3.4622446758E-03    1.7378888504E-03
       933.1034121265      -10.2997522000       -0.8819348118    5.8889340026E-03    3.1867477674E-03    2.7021862351E-03
       933.2098361265      -10.1933282000       -0.8659539109    6.6334116929E-03    2.9776023731E-03    3.6558093197E-03
       933.3162601265      -10.0869042000       -0.8496724267    7.4762857089E-03    2.8259928663E-03    4.6502928427E-03
       933.4226840765       -9.9804802500       -0.8330727997    8.3416745773E-03    2.7223060213E-03    5.6193685561E-03
       933.5291080765       -9.8740562500       -0.8161355852    8.8867531985E-03    2.6586917888E-03    6.2280614096E-03
       933.6355320765       -9.7676322500       -0.7988394104    8.7234667479E-03    2.6284696872E-03    6.0949970607E-03
       933.7419560765       -9.6612082500       -0.7811603296    7.8392683786E-03    2.6265989740E-03    5.2126694046E-03
       933.8483800765       -9.5547842500       -0.7630717643    6.6732463940E-03    2.6494134551E-03    4.0238329389E-03
       933.9548040765       -9.4483602500       -0.7445439058    5.6682209186E-03    2.6941640989E-03    2.9740568197E-03
       934.0612280765       -9.3419362500       -0.7255430640    4.9530595243E-03    2.7587082171E-03    2.1943513072E-03
       934.1676520765       -9.2355122500       -0.7060309777    4.4820363926E-03    2.8418488073E-03    1.6401875853E-03
       934.2740760765       -9.1290882500       -0.6859641767    4.1832419778E-03    2.9417586232E-03    1.2414833546E-03
       934.3805000765       -9.0226642500       -0.6652923482    4.0035662208E-03    3.0582586852E-03    9.4530753560E-04
       934.4869240765       -8.9162402500       -0.6439573113    3.9075136245E-03    3.1901401179E-03    7.1737350661E-04
       934.5933480765       -8.8098162500       -0.6218907051    3.8734309005E-03    3.3374204898E-03    5.3601041072E-04
       934.6997720765       -8.7033922500       -0.5990118190    3.8859591207E-03    3.4985094894E-03    3.8744963138E-04
       934.8061960765       -8.5969682500       -0.5752236228    3.9363470827E-03    3.6736001324E-03    2.6274695032E-04
       934.9126200765       -8.4905442500       -0.5504083028    4.0173759437E-03    3.8614987327E-03    1.5587721097E-04
       935.0190440765       -8.3841202500       -0.5244200194    4.1240573563E-03    4.0612873831E-03    6.2769973282E-05
       935.1254680765       -8.2776962500       -0.4970748840    4.2526884628E-03    4.2720317003E-03   -1.9343237522E-05
       935.2318920765       -8.1712722500       -0.4681351556    4.4000299528E-03    4.4923691553E-03   -9.2339202498E-05
       935.3383160765       -8.0648482500       -0.4372843402    4.5634273193E-03    4.7208854946E-03   -1.5745817524E-04
       935.4447400765       -7.9584242500       -0.4040850047    4.7406652459E-03    4.9561871914E-03   -2.1552194555E-04
       935.5511640765       -7.8520002500       -0.3679018003    4.9286860702E-03    5.1958102801E-03   -2.6712420997E-04
       935.6575880765       -7.7455762500       -0.3277480916    5.1248874493E-03    5.4377795020E-03   -3.1289205268E-04
       935.7640120765       -7.6391522500       -0.2819324301    5.3266763252E-03    5.6802018271E-03   -3.5352550192E-04
       935.8704360765       -7.5327282500       -0.2270528030    5.5311231224E-03    5.9211537570E-03   -3.9003063457E-04
       935.9768600765       -7.4263042500       -0.1536881495    5.7334024463E-03    6.1571493764E-03   -4.2374693005E-04
       936.0668520765       -7.3363122500        0.0000000000    5.9012724069E-03    6.3525048056E-03   -4.5123239873E-04
       936.1897080765       -7.2134562500        0.1795711574    6.1270069683E-03    6.6153408264E-03   -4.8833385804E-04
       936.2961320765       -7.1070322500        0.2453135415    6.3095482048E-03    6.8327318641E-03   -5.2318365929E-04
       936.4025560765       -7.0006082500        0.2968360660    6.4773217270E-03    7.0398987807E-03   -5.6257705372E-04
       936.5089800765       -6.8941842500        0.3406531665    6.6254768734E-03    7.2340461674E-03   -6.0856929399E-04
       936.6154040765       -6.7877602500        0.3794436843    6.7514637012E-03    7.4141603146E-03   -6.6269661347E-04
       936.7218280765       -6.6813362500        0.4146208380    6.8531085731E-03    7.5793518340E-03   -7.2624326086E-04
       936.8282520765       -6.5749122500        0.4470384276    6.9296756248E-03    7.7294859486E-03   -7.9981032386E-04
       936.9346760765       -6.4684882500        0.4772591526    6.9804743100E-03    7.8639273685E-03   -8.8345305850E-04
       937.0411000765       -6.3620642500        0.5056769870    7.0051855102E-03    7.9818455160E-03   -9.7666000589E-04
       937.1475240765       -6.2556402500        0.5325806589    7.0068648545E-03    8.0849935488E-03   -1.0781286943E-03
       937.2539480765       -6.1492162500        0.5581891030    6.9866042806E-03    8.1729821230E-03   -1.1863778424E-03
       937.3603720765       -6.0427922500        0.5826731198    6.9474383658E-03    8.2468787430E-03   -1.2994403772E-03
       937.4667960765       -5.9363682500        0.6061690202    6.8928315477E-03    8.3077870097E-03   -1.4149554621E-03
       937.5732200765       -5.8299442500        0.6287876038    6.8244375767E-03    8.3552529432E-03   -1.5308153665E-03
       937.6796440765       -5.7235202500        0.6506202736    6.7465915713E-03    8.3911582574E-03   -1.6445666861E-03
       937.7860680765       -5.6170962500        0.6717437633    6.6625651824E-03    8.4166223728E-03   -1.7540571904E-03
       937.8924920765       -5.5106722500        0.6922229217    6.5754685323E-03    8.4326424264E-03   -1.8571738941E-03
       937.9989160765       -5.4042482500        0.7121134154    6.4871242430E-03    8.4391567556E-03   -1.9520325125E-03
       938.1053400765       -5.2978242500        0.7314632318    6.4019658440E-03    8.4388533029E-03   -2.0368874590E-03
       938.2117640765       -5.1914002500        0.7503141671    6.3211652225E-03    8.4314337257E-03   -2.1102685032E-03
       938.3181880765       -5.0849762500        0.7687030282    6.2485663695E-03    8.4193945899E-03   -2.1708282205E-03
       938.4246120765       -4.9785522500        0.7866620508    6.1838514982E-03    8.4012395898E-03   -2.2173880916E-03
       938.5310360765       -4.8721282500        0.8042202301    6.1303698297E-03    8.3792208267E-03   -2.2488509971E-03
       938.6374600765       -4.7657042500        0.8214031419    6.0883602996E-03    8.3525639551E-03   -2.2642036555E-03
       938.7438840765       -4.6592802500        0.8382338326    6.0618720515E-03    8.3243113685E-03   -2.2624393171E-03
       938.8503080765       -4.5528562500        0.8547332962    6.0500389019E-03    8.2925053488E-03   -2.2424664469E-03
