# # Once                                                         FEFF 10.0.0 
# # POT  SCF  60  4.0000   0, NO core-hole, AFOLP (folp(0)= 1.150)
# # Abs   Z=29 Rmt= 1.362 Rnm= 1.399 L3 shell
# #   RGRID 0.0100
# # Pot 1 Z=29 Rmt= 1.362 Rnm= 1.399
# # Gam_ch=5.960E-01 H-L exch Vi= 1.677E+00 Vr= 3.279E+00
# # Mu=-6.684E+00eV kf=2.050E+00 Vint=-1.654E+01eV Rs_int= 1.769
# FMS rfms= 8.0000
# # PATH  Rmax=-1.000,  Keep_limit= 0.00, Heap_limit 0.00  Pwcrit= 2.50%
#  S02=1.000  Temp=   0.00  Debye_temp=   0.00  Global_sig2= 0.00000
#  Energy zero shift, vr, vi    0.00000E+00   0.00000E+00
#  Curved wave amplitude ratio filter   4.000%
#     file         sig2 tot  cw amp ratio   deg  nlegs   reff  inp sig2
#     0/   0 paths used
#  xsedge+ 50, used to normalize mu           1.0000E+00
#  -----------------------------------------------------------------------
#  omega    e    k    mu    mu0     chi     @#
       882.0739784153      -60.6763818000       -3.6483956001    1.1651585503E-04    1.1341990300E-04    3.0959520348E-06
       892.0739784153      -50.6763818000       -3.2689612940    1.6923280021E-04    1.6447846905E-04    4.7543311583E-06
       902.0739784153      -40.6763818000       -2.8392647952    2.7533059891E-04    2.6718270589E-04    8.1478930195E-06
       912.0739784153      -30.6763818000       -2.3316821479    5.5569333602E-04    5.3906189234E-04    1.6631443683E-05
       913.5739784153      -29.1763818000       -2.2456713697    6.3768833738E-04    6.1878216889E-04    1.8906168494E-05
       915.0739784153      -27.6763818000       -2.1562322024    7.4109111699E-04    7.1945790873E-04    2.1633208258E-05
       916.5739784153      -26.1763818000       -2.0629189807    8.7487020696E-04    8.4994944301E-04    2.4920763954E-05
       918.0739784153      -24.6763818000       -1.9651800317    1.0523404217E-03    1.0234437714E-03    2.8896650303E-05
       919.5739784153      -23.1763818000       -1.8623183815    1.2950935230E-03    1.2613949931E-03    3.3698529887E-05
       921.0739784153      -21.6763818000       -1.7534329655    1.6409210352E-03    1.6014759318E-03    3.9445103397E-05
       922.0738784153      -20.6764818000       -1.6769273409    1.9609530932E-03    1.9171304802E-03    4.3822612995E-05
       922.5739784153      -20.1763818000       -1.6373224445    2.1596179575E-03    2.1134500177E-03    4.6167939720E-05
       922.7328554153      -20.0175048000       -1.6245383145    2.2294153113E-03    2.1824821053E-03    4.6933205918E-05
       923.3918324153      -19.3585278000       -1.5704025484    2.5604299393E-03    2.5102281110E-03    5.0201828268E-05
       924.0508094153      -18.6995508000       -1.5143327219    2.9751663693E-03    2.9215642425E-03    5.3602126853E-05
       924.7097864153      -18.0405738000       -1.4561054293    3.5043550192E-03    3.4472586295E-03    5.7096389725E-05
       925.3687634153      -17.3815968000       -1.3954505499    4.1936384094E-03    4.1330421870E-03    6.0596222429E-05
       926.0277404153      -16.7226198000       -1.3320367008    5.1123222974E-03    5.0485595399E-03    6.3762757469E-05
       926.6867174153      -16.0636428000       -1.2654490536    6.3672761833E-03    6.3022745114E-03    6.5001671911E-05
       927.3456944153      -15.4046658000       -1.1951571568    8.1223692502E-03    8.0654779663E-03    5.6891283956E-05
       928.0046714153      -14.7456888000       -1.1204642155    1.0615019462E-02    1.0606197233E-02    8.8222287757E-06
       928.6636484153      -14.0867118000       -1.0404228466    1.4133356365E-02    1.4313745274E-02   -1.8038890935E-04
       929.3226254153      -13.4277348000       -0.9536870671    1.8880608121E-02    1.9605588283E-02   -7.2498016173E-04
       929.9816024153      -12.7687578000       -0.8582298665    2.4692986960E-02    2.6371141569E-02   -1.6781546086E-03
       930.6405794153      -12.1097808000       -0.7507315981    3.0684353885E-02    3.2670389510E-02   -1.9860356247E-03
       931.2995564153      -11.4508038000       -0.6250098462    3.5077721343E-02    3.4797689433E-02    2.8003191072E-04
       931.9585334153      -10.7918268000       -0.4665584384    3.5792993507E-02    3.1675688347E-02    4.1173051597E-03
       932.7878783953       -9.9624818200        0.0000000000    3.0812088283E-02    2.4940516501E-02    5.8715717815E-03
       933.2764873953       -9.4738728200        0.3581122258    2.6517254901E-02    2.1389303845E-02    5.1279510562E-03
       933.9354643953       -8.8148958200        0.5488214199    2.1261753268E-02    1.7660039184E-02    3.6017140835E-03
       934.5944413953       -8.1559188200        0.6885967584    1.7292789244E-02    1.4989958439E-02    2.3028308048E-03
       935.2534183953       -7.4969418200        0.8044414297    1.4460599402E-02    1.3082272171E-02    1.3783272306E-03
       935.9123953953       -6.8379648200        0.9055863212    1.2433604727E-02    1.1693317444E-02    7.4028728322E-04
       936.5713723953       -6.1789878200        0.9965175144    1.1075769576E-02    1.0750158866E-02    3.2561070916E-04
       937.2303493953       -5.5200108200        1.0798183280    1.0124275722E-02    1.0038822551E-02    8.5453171047E-05
       937.8893263953       -4.8610338200        1.1571379776    9.4766627368E-03    9.4672014799E-03    9.4612568823E-06
       938.5483033953       -4.2020568200        1.2296052118    9.0726299300E-03    9.0022077147E-03    7.0422215265E-05
       939.2072803953       -3.5430798200        1.2980328715    8.8153771729E-03    8.6183171573E-03    1.9706001558E-04
       939.8662573953       -2.8841028200        1.3630297574    8.6015314347E-03    8.3000751727E-03    3.0145626201E-04
       940.5252343953       -2.2251258200        1.4250651532    8.3783270745E-03    8.0349765181E-03    3.4335055638E-04
       941.1842113953       -1.5661488200        1.4845103737    8.1621761989E-03    7.8121581116E-03    3.5001808730E-04
       941.8431883943       -0.9071718210        1.5416652794    7.9924666030E-03    7.6257424712E-03    3.6672413176E-04
       942.0739283943       -0.6764318210        1.5611833828    7.9465092599E-03    7.5682604143E-03    3.7824884558E-04
       943.5739283943        0.8235681790        1.6825564945    7.6899313940E-03    7.2690575417E-03    4.2087385232E-04
       945.0739283953        2.3235681800        1.7957446183    7.2886016498E-03    7.0731898247E-03    2.1541182513E-04
       946.5739283953        3.8235681800        1.9022094780    6.8300826166E-03    6.9493799288E-03   -1.1929731219E-04
       948.0739283953        5.3235681800        2.0030235865    6.4613482555E-03    6.8765746848E-03   -4.1522642933E-04
       949.5739283953        6.8235681800        2.0990011082    6.2241724406E-03    6.8393106573E-03   -6.1513821661E-04
       951.0739283953        8.3235681800        2.1907779992    6.1321272737E-03    6.8264364804E-03   -6.9430920667E-04
       952.0739783953        9.3236181800        2.2498866895    6.1407902690E-03    6.8271848100E-03   -6.8639454101E-04
       952.5739283953        9.8235681800        2.2788617404    6.1681195889E-03    6.8294787934E-03   -6.6135920452E-04
       972.0739784153       29.3236182000        3.2111299518    7.3265022748E-03    6.7871108204E-03    5.3939145433E-04
       992.0739784153       49.3236182000        3.9447081383    6.2997923450E-03    6.5722637111E-03   -2.7247136615E-04
      1012.0739784153       69.3236182000        4.5618076488    6.0501869024E-03    6.1851734375E-03   -1.3498653517E-04
      1032.0739784153       89.3236182000        5.1048459671    6.2555229193E-03    5.8564835232E-03    3.9903939604E-04
      1052.0739782153      109.3236180000        5.5954287130    5.3957179883E-03    5.5740490397E-03   -1.7833105139E-04
