# # Once                                                         FEFF 10.0.0 
# # POT  SCF  60  4.0000   0, NO core-hole, AFOLP (folp(0)= 1.150)
# # Abs   Z=29 Rmt= 1.362 Rnm= 1.399 L3 shell
# #   RGRID 0.0100
# # Pot 1 Z=29 Rmt= 1.362 Rnm= 1.399
# # Gam_ch=5.960E-01 H-L exch Vi= 3.000E-04 Vr= 4.902E-02
# # Mu=-7.619E+00eV kf=2.013E+00 Vint=-1.628E+01eV Rs_int= 1.802
# FMS rfms= 8.0000
# # PATH  Rmax=-1.000,  Keep_limit= 0.00, Heap_limit 0.00  Pwcrit= 2.50%
#  S02=1.000  Temp=   0.00  Debye_temp=   0.00  Global_sig2= 0.00000
#  Energy zero shift, vr, vi    0.00000E+00   0.00000E+00
#  Curved wave amplitude ratio filter   4.000%
#     file         sig2 tot  cw amp ratio   deg  nlegs   reff  inp sig2
#     0/   0 paths used
#  xsedge+ 50, used to normalize mu           1.0000E+00
#  -----------------------------------------------------------------------
#  omega    e    k    mu    mu0     chi     @#
       884.1484724892      -59.5369366000       -3.6897253395    9.1093640175E-06    9.3916366574E-06   -2.8227263987E-07
       894.1484724892      -49.5369366000       -3.3150248440    1.2142509943E-05    1.2561168073E-05   -4.1865813045E-07
       904.1484724892      -39.5369366000       -2.8921802074    1.7332824509E-05    1.8017198878E-05   -6.8437436942E-07
       914.1484724892      -29.5369366000       -2.3958346853    2.7892307865E-05    2.9214601777E-05   -1.3222939117E-06
       915.6484724892      -28.0369366000       -2.3122113332    3.0424667077E-05    3.1918357363E-05   -1.4936902853E-06
       917.1484724892      -26.5369366000       -2.2254481596    3.3415978158E-05    3.5117653040E-05   -1.7016748819E-06
       918.6484724892      -25.0369366000       -2.1351619366    3.7083921322E-05    3.9041373573E-05   -1.9574522509E-06
       920.1484724892      -23.5369366000       -2.0408856733    4.1436559457E-05    4.3714378300E-05   -2.2778188433E-06
       921.6484724892      -22.0369366000       -1.9420381478    4.6786719676E-05    4.9473547754E-05   -2.6868280784E-06
       923.1484724892      -20.5369366000       -1.8378818182    5.3519304797E-05    5.6740405367E-05   -3.2211005702E-06
       924.1484724892      -19.5369366000       -1.7650329533    5.9060146064E-05    6.2733949376E-05   -3.6738033117E-06
       924.2485734892      -19.4368356000       -1.7575743866    5.9672249723E-05    6.3396653654E-05   -3.7244039307E-06
       924.3486744892      -19.3367346000       -1.7500841546    6.0296107559E-05    6.4072178253E-05   -3.7760706936E-06
       924.4487754892      -19.2366336000       -1.7425616047    6.0932030617E-05    6.4760862504E-05   -3.8288318872E-06
       924.5488764892      -19.1365326000       -1.7350065620    6.1580259040E-05    6.5462975720E-05   -3.8827166800E-06
       924.6484724892      -19.0369366000       -1.7274568593    6.2237880796E-05    6.6175351788E-05   -3.9374709920E-06
       924.7490784892      -18.9363306000       -1.7197967880    6.2915386298E-05    6.6909354241E-05   -3.9939679434E-06
       924.8491794892      -18.8362296000       -1.7121412333    6.3602974185E-05    6.7654371578E-05   -4.0513973921E-06
       924.9492804892      -18.7361286000       -1.7044512941    6.4304517748E-05    6.8414579877E-05   -4.1100621296E-06
       925.0493814892      -18.6360276000       -1.6967265654    6.5020394140E-05    6.9190392770E-05   -4.1699986308E-06
       925.1494824892      -18.5359266000       -1.6889665069    6.5751017679E-05    6.9982249511E-05   -4.2312318324E-06
       925.2495834892      -18.4358256000       -1.6811705661    6.6496959626E-05    7.0790743985E-05   -4.2937843583E-06
       925.3496844892      -18.3357246000       -1.6733383051    6.7258667018E-05    7.1616350715E-05   -4.3576836968E-06
       925.4497854892      -18.2356236000       -1.6654692114    6.8036693841E-05    7.2459636613E-05   -4.4229427715E-06
       925.5498864892      -18.1355226000       -1.6575627605    6.8831602379E-05    7.3321179066E-05   -4.4895766875E-06
       925.6499874892      -18.0354216000       -1.6496184153    6.9643842891E-05    7.4201428851E-05   -4.5575859593E-06
       925.7500884892      -17.9353206000       -1.6416356255    7.0474222461E-05    7.5101162874E-05   -4.6269404124E-06
       925.8501894892      -17.8352196000       -1.6336138928    7.1323351478E-05    7.6020960025E-05   -4.6976085474E-06
       925.9502904892      -17.7351186000       -1.6255525097    7.2192063630E-05    7.6961552009E-05   -4.7694883783E-06
       926.0503914892      -17.6350176000       -1.6174510149    7.3081156251E-05    7.7923576816E-05   -4.8424205656E-06
       926.1504924892      -17.5349166000       -1.6093086704    7.3991745313E-05    7.8907828075E-05   -4.9160827621E-06
       926.2505934892      -17.4348156000       -1.6011249194    7.4925026697E-05    7.9915044172E-05   -4.9900174751E-06
       926.3506944892      -17.3347146000       -1.5928991237    7.5882619932E-05    8.0946096053E-05   -5.0634761208E-06
       926.4507954892      -17.2346136000       -1.5846306958    7.6866167907E-05    8.2001783293E-05   -5.1356153856E-06
       926.5508964892      -17.1345126000       -1.5763187622    7.7876499950E-05    8.3083096598E-05   -5.2065966481E-06
       926.6509974892      -17.0344116000       -1.5679628348    7.8910047361E-05    8.4190997259E-05   -5.2809498981E-06
       926.7510984892      -16.9343106000       -1.5595622062    7.9959739065E-05    8.5326473978E-05   -5.3667349130E-06
       926.8511994892      -16.8342096000       -1.5511160816    8.1026426415E-05    8.6490768274E-05   -5.4643418587E-06
       926.9513004892      -16.7341086000       -1.5426235759    8.2119707875E-05    8.7685033900E-05   -5.5653260252E-06
       927.0514014892      -16.6340076000       -1.5340841961    8.3246415869E-05    8.8910598349E-05   -5.6641824805E-06
       927.1515024892      -16.5339066000       -1.5254970155    8.4409732466E-05    9.0169134566E-05   -5.7594021002E-06
       927.2516034892      -16.4338056000       -1.5168611523    8.5612812372E-05    9.1462320462E-05   -5.8495080893E-06
       927.3517044892      -16.3337046000       -1.5081757701    8.6853649579E-05    9.2791942594E-05   -5.9382930146E-06
       927.4518054892      -16.2336036000       -1.4994402213    8.8135453136E-05    9.4159469909E-05   -6.0240167739E-06
       927.5519064892      -16.1335026000       -1.4906533384    8.9449205740E-05    9.5565466124E-05   -6.1162603836E-06
       927.6520074892      -16.0334016000       -1.4818145673    9.0790486245E-05    9.7010469349E-05   -6.2199831036E-06
       927.7521084892      -15.9333006000       -1.4729226127    9.2161899574E-05    9.8495576116E-05   -6.3336765417E-06
       927.8522094892      -15.8331996000       -1.4639766507    9.3569252062E-05    1.0002235615E-04   -6.4531040894E-06
       927.9523104892      -15.7330986000       -1.4549756853    9.5018058026E-05    1.0159279959E-04   -6.5747415624E-06
       928.0524114892      -15.6329976000       -1.4459186892    9.6512995655E-05    1.0320914669E-04   -6.6961510314E-06
       928.1525124892      -15.5328966000       -1.4368046769    9.8057674040E-05    1.0487370378E-04   -6.8160297365E-06
       928.2526134892      -15.4327956000       -1.4276324073    9.9655576516E-05    1.0658890797E-04   -6.9333314507E-06
       928.3527144892      -15.3326946000       -1.4184008254    1.0131013344E-04    1.0835753608E-04   -7.0474026406E-06
       928.4528154892      -15.2325936000       -1.4091087653    1.0302486247E-04    1.1018230273E-04   -7.1574402535E-06
       928.5529164892      -15.1324926000       -1.3997550986    1.0480347125E-04    1.1206627634E-04   -7.2628050903E-06
       928.6530174892      -15.0323916000       -1.3903384290    1.0665002632E-04    1.1401267480E-04   -7.3626484834E-06
       928.7531184892      -14.9322906000       -1.3808574673    1.0856904409E-04    1.1602506105E-04   -7.4560169561E-06
       928.8532194892      -14.8321896000       -1.3713111131    1.1056518141E-04    1.1810707005E-04   -7.5418886405E-06
       928.9533204892      -14.7320886000       -1.3616978346    1.1264352171E-04    1.2026275725E-04   -7.6192355364E-06
       929.0534214892      -14.6319876000       -1.3520161255    1.1480983253E-04    1.2249665021E-04   -7.6868176835E-06
       929.1535224892      -14.5318866000       -1.3422645051    1.1707033943E-04    1.2481344803E-04   -7.7431085998E-06
       929.2536234892      -14.4317856000       -1.3324417580    1.1943220088E-04    1.2721838359E-04   -7.7861827142E-06
       929.3537244892      -14.3316846000       -1.3225458566    1.2190390234E-04    1.2971714704E-04   -7.8132446957E-06
       929.4538254892      -14.2315836000       -1.3125753898    1.2449586227E-04    1.3231614594E-04   -7.8202836717E-06
       929.5539264892      -14.1314826000       -1.3025286451    1.2722071695E-04    1.3502216334E-04   -7.8014463848E-06
       929.6540274892      -14.0313816000       -1.2924037613    1.3009460047E-04    1.3784299609E-04   -7.7483956239E-06
       929.7541284892      -13.9312806000       -1.2821990118    1.3313796721E-04    1.4078723911E-04   -7.6492719024E-06
       929.8542294892      -13.8311796000       -1.2719122652    1.3637665223E-04    1.4386422294E-04   -7.4875707182E-06
       929.9543304892      -13.7310786000       -1.2615417265    1.3984448195E-04    1.4708487988E-04   -7.2403979310E-06
       930.0544314892      -13.6309776000       -1.2510852270    1.4358550509E-04    1.5046143427E-04   -6.8759291877E-06
       930.1545324892      -13.5308766000       -1.2405405500    1.4765620140E-04    1.5400689535E-04   -6.3506939497E-06
       930.2546334892      -13.4307756000       -1.2299055140    1.5213269301E-04    1.5773716887E-04   -5.6044758619E-06
       930.3547344892      -13.3306746000       -1.2191776673    1.5711199690E-04    1.6167019912E-04   -4.5582022191E-06
       930.4548354892      -13.2305736000       -1.2083545378    1.6271157577E-04    1.6582706866E-04   -3.1154928861E-06
       930.5549364892      -13.1304726000       -1.1974336751    1.6904944440E-04    1.7023133754E-04   -1.1818931398E-06
       930.6550374892      -13.0303716000       -1.1864122907    1.7617857371E-04    1.7491158973E-04    1.2669839854E-06
       930.7551384892      -12.9302706000       -1.1752875567    1.8395058332E-04    1.7990150598E-04    4.0490773422E-06
       930.8552394892      -12.8301696000       -1.1640564642    1.9189023933E-04    1.8523968942E-04    6.6505499098E-06
       930.9553404892      -12.7300686000       -1.1527159968    1.9942157579E-04    1.9097365163E-04    8.4479241582E-06
       931.0554414892      -12.6299676000       -1.1412627541    2.0669041016E-04    1.9716362632E-04    9.5267838387E-06
       931.1555424892      -12.5298666000       -1.1296935415    2.1484823295E-04    2.0387833200E-04    1.0969900949E-05
       931.2556434892      -12.4297656000       -1.1180044732    2.2501035736E-04    2.1120797265E-04    1.3802384706E-05
       931.3557444892      -12.3296646000       -1.1061920865    2.3735142867E-04    2.1926226613E-04    1.8089162537E-05
       931.4558454892      -12.2295636000       -1.0942520474    2.5074945069E-04    2.2818287012E-04    2.2566580563E-05
       931.5559464892      -12.1294626000       -1.0821802289    2.6290740747E-04    2.3814942886E-04    2.4757978611E-05
       931.6560474892      -12.0293616000       -1.0699723695    2.7248264894E-04    2.4939703395E-04    2.3085614989E-05
       931.7561484892      -11.9292606000       -1.0576234567    2.8120006201E-04    2.6223343879E-04    1.8966623228E-05
       931.8562494892      -11.8291596000       -1.0451286940    2.9141266600E-04    2.7706630624E-04    1.4346359763E-05
       931.9563504892      -11.7290586000       -1.0324827865    3.0313555410E-04    2.9443664571E-04    8.6989083907E-06
       932.0564514892      -11.6289576000       -1.0196800585    3.1547311072E-04    3.1506602633E-04    4.0708439096E-07
       932.1565524892      -11.5288566000       -1.0067144743    3.2860379272E-04    3.3989402579E-04   -1.1290233061E-05
       932.2566534892      -11.4287556000       -0.9935797118    3.4256651760E-04    3.7009773107E-04   -2.7531213469E-05
       932.3567544892      -11.3286546000       -0.9802690248    3.5788023482E-04    4.0700750504E-04   -4.9127270219E-05
       932.4568554892      -11.2285536000       -0.9667750369    3.7633934520E-04    4.5179704753E-04   -7.5457702324E-05
       932.5569564892      -11.1284526000       -0.9530900741    3.9969285896E-04    5.0476137081E-04   -1.0506851184E-04
       932.6570574892      -11.0283516000       -0.9392057035    4.2683761390E-04    5.6416231909E-04   -1.3732470520E-04
       932.7571584892      -10.9282506000       -0.9251129756    4.5239874226E-04    6.2505620101E-04   -1.7265745875E-04
       932.8572594892      -10.8281496000       -0.9108022480    4.6898791540E-04    6.7858427133E-04   -2.0959635593E-04
       932.9573604892      -10.7280486000       -0.8962630189    4.7227662576E-04    7.1344140897E-04   -2.4116478321E-04
       933.0574614892      -10.6279476000       -0.8814839817    4.6731721863E-04    7.2183387158E-04   -2.5451665296E-04
       933.1575624892      -10.5278466000       -0.8664529267    4.6812793562E-04    7.0608707160E-04   -2.3795913597E-04
       933.2576634892      -10.4277456000       -0.8511564399    4.8449706929E-04    6.7703962058E-04   -1.9254255129E-04
       933.3577644892      -10.3276446000       -0.8355800077    5.1153252141E-04    6.4615176004E-04   -1.3461923864E-04
       933.4578654892      -10.2275436000       -0.8197076715    5.3917619672E-04    6.2053332940E-04   -8.1357132682E-05
       933.5579664892      -10.1274426000       -0.8035218297    5.6501815432E-04    6.0298200743E-04   -3.7963853113E-05
       933.6580674892      -10.0273416000       -0.7870031734    5.9048547083E-04    5.9382822409E-04   -3.3427532558E-06
       933.7581685092       -9.9272405800       -0.7701302871    6.1655620265E-04    5.9246658994E-04    2.4089612713E-05
       933.8582695092       -9.8271395800       -0.7528793551    6.4542452119E-04    5.9810728656E-04    4.7317234629E-05
       933.9583705092       -9.7270385800       -0.7352237669    6.7866014087E-04    6.1008361594E-04    6.8576524924E-05
       934.0584715092       -9.6269375800       -0.7171335987    7.1217528549E-04    6.2802179558E-04    8.4153489912E-05
       934.1585725092       -9.5268365800       -0.6985751660    7.3747249688E-04    6.5177074309E-04    8.5701753790E-05
       934.2586735092       -9.4267355800       -0.6795101028    7.5078147934E-04    6.8147700501E-04    6.9304474330E-05
       934.3587745092       -9.3266345800       -0.6598944188    7.5785276670E-04    7.1754500128E-04    4.0307765416E-05
       934.4588755092       -9.2265335800       -0.6396774617    7.7011215123E-04    7.6067583406E-04    9.4363171720E-06
       934.5589765092       -9.1264325800       -0.6188004086    7.9513461045E-04    8.1191388694E-04   -1.6779276486E-05
       934.6590775092       -9.0263315800       -0.5971939243    8.3489028595E-04    8.7273671624E-04   -3.7846430296E-05
       934.7591785092       -8.9262305800       -0.5747758468    8.8976853524E-04    9.4519185833E-04   -5.5423323088E-05
       934.8592795092       -8.8261295800       -0.5514471550    9.6090782795E-04    1.0321142676E-03   -7.1206439678E-05
       934.9593805092       -8.7260285800       -0.5270868768    1.0509123999E-03    1.1374677196E-03   -8.6555319722E-05
       935.0594815092       -8.6259275800       -0.5015448533    1.1642613551E-03    1.2668693201E-03   -1.0260796496E-04
       935.1595825092       -8.5258265800       -0.4746302814    1.3079394178E-03    1.4284150201E-03   -1.2047560227E-04
       935.2596835092       -8.4257255800       -0.4460948122    1.4924975146E-03    1.6339370211E-03   -1.4143950653E-04
       935.3597845092       -8.3256245800       -0.4156046587    1.7336606995E-03    1.9008292709E-03   -1.6716857143E-04
       935.4598855092       -8.2255235800       -0.3826929359    2.0544115548E-03    2.2543762764E-03   -1.9996472154E-04
       935.5599865092       -8.1254225800       -0.3466706804    2.4867679251E-03    2.7297465129E-03   -2.4297858774E-04
       935.6600875092       -8.0253215800       -0.3064428573    3.0707153328E-03    3.3708726880E-03   -3.0015735520E-04
       935.7601885092       -7.9252205800       -0.2600651373    3.8449096997E-03    4.2202808203E-03   -3.7537112066E-04
       935.8602895092       -7.8251195800       -0.2033729000    4.8231486818E-03    5.2931844299E-03   -4.7003574810E-04
       935.9603905092       -7.7250185800       -0.1228299730    5.9614889506E-03    6.5410321380E-03   -5.7954318740E-04
       936.0178725092       -7.6675365800        0.0000000000    6.6403434355E-03    7.2864123710E-03   -6.4606893550E-04
       936.1605925092       -7.5248165800        0.1935445024    8.2685248441E-03    9.0467866120E-03   -7.7826176795E-04
       936.2606935092       -7.4247155800        0.2524535936    9.1586433716E-03    1.0008801764E-02   -8.5015839230E-04
       936.3607945092       -7.3246145800        0.3000102434    9.7974121909E-03    1.0695768998E-02   -8.9835680761E-04
       936.4608955092       -7.2245135800        0.3409977644    1.0214582522E-02    1.1141022276E-02   -9.2643975420E-04
       936.5609965092       -7.1244125800        0.3775616830    1.0460609130E-02    1.1401821454E-02   -9.4121232329E-04
       936.6610975092       -7.0243115800        0.4108846071    1.0581502164E-02    1.1531377963E-02   -9.4987579949E-04
       936.7611985092       -6.9242105800        0.4417007012    1.0613635921E-02    1.1572175969E-02   -9.5854004768E-04
       936.8612995092       -6.8241095800        0.4705027722    1.0579752247E-02    1.1551831362E-02   -9.7207911456E-04
       936.9614005092       -6.7240085800        0.4976406011    1.0498821092E-02    1.1493006766E-02   -9.9418567430E-04
       937.0615015092       -6.6239075800        0.5233731974    1.0380971176E-02    1.1408383561E-02   -1.0274123852E-03
       937.1616025092       -6.5238065800        0.5478985911    1.0232644427E-02    1.1305919963E-02   -1.0732755358E-03
       937.2617035092       -6.4237055800        0.5713721864    1.0061072522E-02    1.1193389005E-02   -1.1323164831E-03
       937.3618045092       -6.3236045800        0.5939187974    9.8692148386E-03    1.1073381476E-02   -1.2041666378E-03
       937.4619055092       -6.2235035800        0.6156402361    9.6621092008E-03    1.0949968586E-02   -1.2878593847E-03
       937.5620065092       -6.1234025800        0.6366209099    9.4444444421E-03    1.0826133644E-02   -1.3816892020E-03
       937.6621075092       -6.0233015800        0.6569319184    9.2173537809E-03    1.0701061455E-02   -1.4837076741E-03
       937.7622085092       -5.9232005800        0.6766334911    8.9868992564E-03    1.0578345494E-02   -1.5914462374E-03
       937.8623095092       -5.8230995800        0.6957774192    8.7543806950E-03    1.0457121599E-02   -1.7027409036E-03
       937.9624105092       -5.7229985800        0.7144085337    8.5232326907E-03    1.0338174183E-02   -1.8149414927E-03
       938.0625115092       -5.6228975800        0.7325659984    8.2961389729E-03    1.0222008934E-02   -1.9258699607E-03
       938.1626125092       -5.5227965800        0.7502840960    8.0757250428E-03    1.0108908308E-02   -2.0331832655E-03
       938.2627135092       -5.4226955800        0.7675933909    7.8640493284E-03    9.9989736601E-03   -2.1349243317E-03
       938.3628145092       -5.3225945800        0.7845208407    7.6625426444E-03    9.8921578592E-03   -2.2296152149E-03
       938.4629155092       -5.2224935800        0.8010906849    7.4740064099E-03    9.7892914558E-03   -2.3152850459E-03
       938.5630165092       -5.1223925800        0.8173246406    7.2981825352E-03    9.6891004363E-03   -2.3909179011E-03
       938.6631175092       -5.0222915800        0.8332424040    7.1379655222E-03    9.5932264879E-03   -2.4552609657E-03
