# # Once                                                         FEFF 10.0.0 
# # POT  SCF  60  4.0000   0, NO core-hole, AFOLP (folp(0)= 1.150)
# # Abs   Z=29 Rmt= 1.362 Rnm= 1.399 L3 shell
# #   RGRID 0.0100
# # Pot 1 Z=29 Rmt= 1.362 Rnm= 1.399
# # Gam_ch=5.960E-01 H-L exch Vi= 5.057E-01 Vr=-2.574E+00
# # Mu=-6.054E+00eV kf=2.135E+00 Vint=-1.690E+01eV Rs_int= 1.699
# FMS rfms= 8.0000
# # PATH  Rmax=-1.000,  Keep_limit= 0.00, Heap_limit 0.00  Pwcrit= 2.50%
#  S02=1.000  Temp=   0.00  Debye_temp=   0.00  Global_sig2= 0.00000
#  Energy zero shift, vr, vi    0.00000E+00   0.00000E+00
#  Curved wave amplitude ratio filter   4.000%
#     file         sig2 tot  cw amp ratio   deg  nlegs   reff  inp sig2
#     0/   0 paths used
#  xsedge+ 50, used to normalize mu           1.0000E+00
#  -----------------------------------------------------------------------
#  omega    e    k    mu    mu0     chi     @#
       878.4676498315      -63.6533244000       -3.9741174682    2.3103273295E-05    2.3159926417E-05   -5.6653122551E-08
       888.4676498315      -53.6533244000       -3.6289016435    3.1442948334E-05    3.1507422880E-05   -6.4474545685E-08
       898.4676498315      -43.6533244000       -3.2471900040    4.7020918603E-05    4.7083351002E-05   -6.2432399399E-08
       908.4676498315      -33.6533244000       -2.8141713539    8.5083259825E-05    8.5093824703E-05   -1.0564878021E-08
       909.9676498315      -32.1533244000       -2.7433297733    9.5867932131E-05    9.5858355154E-05    9.5769769962E-09
       911.4676498315      -30.6533244000       -2.6706096834    1.0936955899E-04    1.0933286047E-04    3.6698517007E-08
       912.9676498315      -29.1533244000       -2.5958531336    1.2665104772E-04    1.2657667894E-04    7.4368775730E-08
       914.4676498315      -27.6533244000       -2.5188788977    1.4907623224E-04    1.4894729073E-04    1.2894150632E-07
       915.9676498315      -26.1533244000       -2.4394769697    1.8066517223E-04    1.8044389780E-04    2.2127443280E-07
       917.4676498315      -24.6533244000       -2.3574024153    2.2581580817E-04    2.2541664080E-04    3.9916737148E-07
       918.4676498315      -23.6533244000       -2.3010600754    2.6782383839E-04    2.6719308767E-04    6.3075072646E-07
       918.7362278315      -23.3847464000       -2.2856912987    2.8142662880E-04    2.8070432516E-04    7.2230364211E-07
       918.9676498315      -23.1533244000       -2.2723652839    2.9411743171E-04    2.9330159392E-04    8.1583778973E-07
       919.0048058315      -23.1161684000       -2.2702184818    2.9624645544E-04    2.9541414262E-04    8.3231281229E-07
       919.2733838315      -22.8475904000       -2.2546391996    3.1243647856E-04    3.1147100945E-04    9.6546910697E-07
       919.5419618315      -22.5790124000       -2.2389517050    3.3018176274E-04    3.2905390736E-04    1.1278553865E-06
       919.8105398315      -22.3104344000       -2.2231535156    3.4969376184E-04    3.4836642061E-04    1.3273412302E-06
       920.0791178315      -22.0418564000       -2.2072422546    3.7122700969E-04    3.6965266861E-04    1.5743410780E-06
       920.3476958315      -21.7732784000       -2.1912154589    3.9507873409E-04    3.9319612690E-04    1.8826071926E-06
       920.6162738315      -21.5047004000       -2.1750705745    4.2160486079E-04    4.1933441214E-04    2.2704486589E-06
       920.8848518315      -21.2361224000       -2.1588049520    4.5123630659E-04    4.4847384488E-04    2.7624617088E-06
       921.1534298315      -20.9675444000       -2.1424159407    4.8449625335E-04    4.8110386446E-04    3.3923888855E-06
       921.4220078315      -20.6989664000       -2.1259004868    5.2201962775E-04    5.1781331997E-04    4.2063077835E-06
       921.6905858315      -20.4303884000       -2.1092555191    5.6459500618E-04    5.5932678704E-04    5.2682191350E-06
       921.9591638315      -20.1618104000       -2.0924785574    6.1320138354E-04    6.0653305104E-04    6.6683324954E-06
       922.2277418315      -19.8932324000       -2.0755657855    6.6907420177E-04    6.6053894496E-04    8.5352568045E-06
       922.4963198315      -19.6246544000       -2.0585139593    7.3377878791E-04    7.2272314442E-04    1.1055643498E-05
       922.7648978315      -19.3560764000       -2.0413198028    8.0936010530E-04    7.9485718158E-04    1.4502923713E-05
       923.0334758315      -19.0874984000       -2.0239795834    8.9847167650E-04    8.7918670203E-04    1.9284974465E-05
       923.3020538315      -18.8189204000       -2.0064894082    1.0046249150E-03    9.7861124575E-04    2.6013669274E-05
       923.5706318315      -18.5503424000       -1.9888456419    1.1326254039E-03    1.0970273744E-03    3.5598029512E-05
       923.8392098315      -18.2817644000       -1.9710438362    1.2889594611E-03    1.2395759164E-03    4.9383544711E-05
       924.1077878315      -18.0131864000       -1.9530796694    1.4826803876E-03    1.4132011780E-03    6.9479209546E-05
       924.3763658315      -17.7446084000       -1.9349488396    1.7271146341E-03    1.6276134248E-03    9.9501209226E-05
       924.6449438315      -17.4760304000       -1.9166465059    2.0417278188E-03    1.8964651508E-03    1.4526266798E-04
       924.9135218315      -17.2074524000       -1.8981678195    2.4548965302E-03    2.2393459957E-03    2.1555053457E-04
       925.1820998315      -16.9388744000       -1.8795072957    3.0100955798E-03    2.6852341950E-03    3.2486138481E-04
       925.4506778315      -16.6702964000       -1.8606596925    3.7734128346E-03    3.2775414748E-03    4.9587135975E-04
       925.7192558315      -16.4017184000       -1.8416192082    4.8325741505E-03    4.0836606597E-03    7.4891349083E-04
       925.9878338315      -16.1331404000       -1.8223797387    6.2647155842E-03    5.2096424890E-03    1.0550730953E-03
       926.2564118315      -15.8645624000       -1.8029350907    8.0623342208E-03    6.8230252955E-03    1.2393089252E-03
       926.5249898315      -15.5959844000       -1.7832783737    1.0102860892E-02    9.1799562163E-03    9.2290467558E-04
       926.7935678315      -15.3274064000       -1.7634024957    1.2249798820E-02    1.2616419104E-02   -3.6662028356E-04
       927.0621458315      -15.0588284000       -1.7433000828    1.4479420965E-02    1.7341633908E-02   -2.8622129427E-03
       927.3307238315      -14.7902504000       -1.7229630821    1.6686809279E-02    2.2698701061E-02   -6.0118917821E-03
       927.5993018315      -14.5216724000       -1.7023833366    1.8323424982E-02    2.6222303294E-02   -7.8988783120E-03
       927.8678798315      -14.2530944000       -1.6815515540    1.9266168100E-02    2.5210595102E-02   -5.9444270021E-03
       928.1364578315      -13.9845164000       -1.6604584404    1.9748511820E-02    2.0630060952E-02   -8.8154913201E-04
       928.4050358315      -13.7159384000       -1.6390940370    1.8969578831E-02    1.5583741668E-02    3.3858371622E-03
       928.6736138315      -13.4473604000       -1.6174473302    1.6430418674E-02    1.1615107623E-02    4.8153110509E-03
       928.9421918315      -13.1787824000       -1.5955070966    1.3019260399E-02    8.8174879355E-03    4.2017724631E-03
       929.2107698315      -12.9102044000       -1.5732608531    9.9664405345E-03    6.8904419446E-03    3.0759985899E-03
       929.4793478315      -12.6416264000       -1.5506954984    7.7003358348E-03    5.5506723060E-03    2.1496635288E-03
       929.7479258315      -12.3730484000       -1.5277968231    6.1128077406E-03    4.6003623382E-03    1.5124454024E-03
       930.0165038315      -12.1044704000       -1.5045496789    5.0002688112E-03    3.9116368189E-03    1.0886319922E-03
       930.2850818315      -11.8358924000       -1.4809377995    4.2047826833E-03    3.4026128989E-03    8.0216978443E-04
       930.5536598315      -11.5673144000       -1.4569432324    3.6226939896E-03    3.0201106746E-03    6.0258331503E-04
       930.8222378315      -11.2987364000       -1.4325468227    3.1883529017E-03    2.7288804317E-03    4.5947246998E-04
       931.0908158315      -11.0301584000       -1.4077276026    2.8598301016E-03    2.5051172051E-03    3.5471289657E-04
       931.3593938315      -10.7615804000       -1.3824628772    2.6090888418E-03    2.3319839197E-03    2.7710492208E-04
       931.6279718315      -10.4930024000       -1.3567278370    2.4171560352E-03    2.1979587950E-03    2.1919724025E-04
       931.8965498315      -10.2244244000       -1.3304951510    2.2702224766E-03    2.0946279604E-03    1.7559451622E-04
       932.1651278015       -9.9558464300       -1.3037346574    2.1578546122E-03    2.0158007324E-03    1.4205387976E-04
       932.4337058015       -9.6872684300       -1.2764133265    2.0718272959E-03    1.9566966368E-03    1.1513065912E-04
       932.7022838015       -9.4186904300       -1.2484942544    2.0058273292E-03    1.9138180102E-03    9.2009319076E-05
       932.9708618015       -9.1501124300       -1.2199362717    1.9549974201E-03    1.8845022845E-03    7.0495135661E-05
       933.2394398015       -8.8815344300       -1.1906936313    1.9158806718E-03    1.8668871840E-03    4.8993487771E-05
       933.5080178015       -8.6129564300       -1.1607145415    1.8854131228E-03    1.8588824153E-03    2.6530707508E-05
       933.7765958015       -8.3443784300       -1.1299401978    1.8622528394E-03    1.8594612747E-03    2.7915647320E-06
       934.0451738015       -8.0758004300       -1.0983040443    1.8455749546E-03    1.8674486751E-03   -2.1873720488E-05
       934.3137518015       -7.8072224300       -1.0657290856    1.8354524869E-03    1.8818998534E-03   -4.6447366443E-05
       934.5823298015       -7.5386444300       -1.0321265914    1.8329697389E-03    1.9022563035E-03   -6.9286564567E-05
       934.8509078015       -7.2700664300       -0.9973927129    1.8396555745E-03    1.9278346158E-03   -8.8179041329E-05
       935.1194858015       -7.0014884300       -0.9614046672    1.8576819852E-03    1.9581304874E-03   -1.0044850222E-04
       935.3880638015       -6.7329104300       -0.9240160699    1.8896104498E-03    1.9927337651E-03   -1.0312331533E-04
       935.6566418015       -6.4643324300       -0.8850494417    1.9379975994E-03    2.0312291124E-03   -9.3231512987E-05
       935.9252198015       -6.1957544300       -0.8442862534    2.0049830226E-03    2.0732950047E-03   -6.8311982089E-05
       936.1937978015       -5.9271764300       -0.8014524572    2.0907834129E-03    2.1189886404E-03   -2.8205227522E-05
       936.4623758015       -5.6585984300       -0.7561963442    2.1930539989E-03    2.1682545541E-03    2.4799444799E-05
       936.7309538015       -5.3900204300       -0.7080534404    2.3072877094E-03    2.2202992527E-03    8.6988456632E-05
       936.9995318015       -5.1214424300       -0.6563889380    2.4254027033E-03    2.2748749140E-03    1.5052778932E-04
       937.2681098015       -4.8528644300       -0.6002942402    2.5377725048E-03    2.3318659774E-03    2.0590652737E-04
       937.5366878015       -4.5842864300       -0.5383864951    2.6360929587E-03    2.3910178146E-03    2.4507514408E-04
       937.8052658015       -4.3157084300       -0.4683660764    2.7164137443E-03    2.4521946083E-03    2.6421913599E-04
       938.0738438015       -4.0471304300       -0.3858414159    2.7795475577E-03    2.5152198733E-03    2.6432768439E-04
       938.3424218015       -3.7785524300       -0.2799649532    2.8297084697E-03    2.5799180701E-03    2.4979039959E-04
       938.6410498015       -3.4799244300        0.0000000000    2.8775131695E-03    2.6536504040E-03    2.2386276547E-04
       939.9676598015       -2.1533144300        0.5900788467    3.2054436784E-03    2.9982706437E-03    2.0717303477E-04
       941.4676598005       -0.6533144310        0.8613335603    3.8058744270E-03    3.4055470907E-03    4.0032733625E-04
       942.9676598005        0.8466855690        1.0656443992    4.0533390610E-03    3.8108136778E-03    2.4252538318E-04
       944.4676598015        2.3466855700        1.2366488436    4.0783230813E-03    4.1975383228E-03   -1.1921524148E-04
       945.9676598015        3.8466855700        1.3867237046    4.1299775103E-03    4.5550053038E-03   -4.2502779348E-04
       947.4676598015        5.3466855700        1.5220726034    4.1758244354E-03    4.8779595618E-03   -7.0213512641E-04
       948.4676598015        6.3466855700        1.6059805998    4.2775758575E-03    5.0732695281E-03   -7.9569367054E-04
       948.9676598015        6.8466855700        1.6463315582    4.3486464284E-03    5.1650148859E-03   -8.1636845752E-04
       968.4676598315       26.3466856000        2.7979526311    7.1780797082E-03    6.5217190753E-03    6.5636063299E-04
       988.4676598315       46.3466856000        3.6163385908    6.1249541447E-03    6.5170924400E-03   -3.9213829530E-04
      1008.4676598315       66.3466856000        4.2810359701    6.0025912584E-03    6.1619564713E-03   -1.5936521283E-04
      1028.4676598315       86.3466856000        4.8555779686    6.4177878809E-03    5.8410705081E-03    5.7671737279E-04
      1048.4676602315      106.3466860000        5.3689850747    5.3219327207E-03    5.5674351574E-03   -2.4550243669E-04
      1068.4676602315      126.3466860000        5.8374113155    5.1407453404E-03    5.3033699334E-03   -1.6262459298E-04
