# # Once                                                         FEFF 10.0.0 
# # POT  SCF  60  4.0000   0, NO core-hole, AFOLP (folp(0)= 1.150)
# # Abs   Z=29 Rmt= 1.362 Rnm= 1.399 L3 shell
# #   RGRID 0.0100
# # Pot 1 Z=29 Rmt= 1.362 Rnm= 1.399
# # Gam_ch=5.960E-01 H-L exch Vi= 2.740E-03 Vr= 0.000E+00
# # Mu=-7.607E+00eV kf=2.013E+00 Vint=-1.628E+01eV Rs_int= 1.801
# FMS rfms= 8.0000
# # PATH  Rmax=-1.000,  Keep_limit= 0.00, Heap_limit 0.00  Pwcrit= 2.50%
#  S02=1.000  Temp=   0.00  Debye_temp=   0.00  Global_sig2= 0.00000
#  Energy zero shift, vr, vi    0.00000E+00   0.00000E+00
#  Curved wave amplitude ratio filter   4.000%
#     file         sig2 tot  cw amp ratio   deg  nlegs   reff  inp sig2
#     0/   0 paths used
#  xsedge+ 50, used to normalize mu           1.0000E+00
#  -----------------------------------------------------------------------
#  omega    e    k    mu    mu0     chi     @#
       884.1134508437      -59.5608179000       -3.6927117804    9.1656121906E-06    9.4378518720E-06   -2.7223968139E-07
       894.1134508437      -49.5608179000       -3.3183485243    1.2215776288E-05    1.2618816777E-05   -4.0304048920E-07
       904.1134508437      -39.5608179000       -2.8959893674    1.7434567607E-05    1.8091407724E-05   -6.5684011702E-07
       914.1134508437      -29.5608179000       -2.4004316076    2.8053219784E-05    2.9314801923E-05   -1.2615821386E-06
       915.6134508437      -28.0608179000       -2.3169740800    3.0602587898E-05    3.2025687935E-05   -1.4231000375E-06
       917.1134508437      -26.5608179000       -2.2303960911    3.3604659596E-05    3.5223268000E-05   -1.6186084042E-06
       918.6134508437      -25.0608179000       -2.1403186990    3.7301741590E-05    3.9159992335E-05   -1.8582507444E-06
       920.1134508437      -23.5608179000       -2.0462800320    4.1684928329E-05    4.3842227311E-05   -2.1572989822E-06
       921.6134508437      -22.0608179000       -1.9477060748    4.7076005048E-05    4.9613292319E-05   -2.5372872712E-06
       923.1134508437      -20.5608179000       -1.8438700000    5.3866684587E-05    5.6897276949E-05   -3.0305923625E-06
       924.1134508437      -19.5608179000       -1.7712674949    5.9461794326E-05    6.2907594895E-05   -3.4458005697E-06
       924.2143648437      -19.4599039000       -1.7637748926    6.0085383614E-05    6.3577809158E-05   -3.4924255434E-06
       924.3152788437      -19.3589899000       -1.7562502041    6.0721043551E-05    6.4261048505E-05   -3.5400049535E-06
       924.4161928437      -19.2580759000       -1.7486933194    6.1369183505E-05    6.4957748098E-05   -3.5885645935E-06
       924.5171068437      -19.1571619000       -1.7411035749    6.2030191132E-05    6.5668317098E-05   -3.6381259661E-06
       924.6134508437      -19.0608179000       -1.7338264619    6.2673494571E-05    6.6359893431E-05   -3.6863988601E-06
       924.6180208437      -19.0562479000       -1.7334805389    6.2704304977E-05    6.6393016349E-05   -3.6887113716E-06
       924.7189348437      -18.9553339000       -1.7258238320    6.3392080197E-05    6.7132430407E-05   -3.7403502091E-06
       924.8198488437      -18.8544199000       -1.7181331279    6.4093840187E-05    6.7886903516E-05   -3.7930633290E-06
       924.9207628437      -18.7535059000       -1.7104077814    6.4810048202E-05    6.8656923461E-05   -3.8468752593E-06
       925.0216768437      -18.6525919000       -1.7026473208    6.5541125935E-05    6.9442930621E-05   -3.9018046860E-06
       925.1225908437      -18.5516779000       -1.6948513894    6.6287576888E-05    7.0245456683E-05   -3.9578797954E-06
       925.2235048437      -18.4507639000       -1.6870193693    6.7050000881E-05    7.1065115856E-05   -4.0151149751E-06
       925.3244188437      -18.3498499000       -1.6791508823    6.7828730673E-05    7.1902255117E-05   -4.0735244443E-06
       925.4253328437      -18.2489359000       -1.6712454134    6.8624405562E-05    7.2757527850E-05   -4.1331222880E-06
       925.5262468437      -18.1480219000       -1.6633023071    6.9437708843E-05    7.3631618863E-05   -4.1939100208E-06
       925.6271608437      -18.0471079000       -1.6553209575    7.0269133027E-05    7.4525002474E-05   -4.2558694473E-06
       925.7280748437      -17.9461939000       -1.6473010671    7.1119422017E-05    7.5438409167E-05   -4.3189871500E-06
       925.8289888437      -17.8452799000       -1.6392418754    7.1989316221E-05    7.6372509838E-05   -4.3831936167E-06
       925.9299028437      -17.7443659000       -1.6311429956    7.2879555600E-05    7.7327936815E-05   -4.4483812152E-06
       926.0308168437      -17.6434519000       -1.6230035713    7.3791188829E-05    7.8305563242E-05   -4.5143744133E-06
       926.1317308437      -17.5425379000       -1.6148232530    7.4725188974E-05    7.9306067528E-05   -4.5808785541E-06
       926.2326448437      -17.4416239000       -1.6066010849    7.5682978354E-05    8.0330307580E-05   -4.6473292258E-06
       926.3335588437      -17.3407099000       -1.5983368206    7.6666181027E-05    8.1379193773E-05   -4.7130127462E-06
       926.4344728437      -17.2397959000       -1.5900294691    7.7676542370E-05    8.2453555191E-05   -4.7770128214E-06
       926.5353868437      -17.1388819000       -1.5816786205    7.8714689037E-05    8.3554371958E-05   -4.8396829207E-06
       926.6363008437      -17.0379679000       -1.5732833794    7.9777117326E-05    8.4682696505E-05   -4.9055791797E-06
       926.7372148437      -16.9370539000       -1.5648430311    8.0856866628E-05    8.5839662209E-05   -4.9827955808E-06
       926.8381288437      -16.8361399000       -1.5563569104    8.1955236628E-05    8.7026489675E-05   -5.0712530472E-06
       926.9390428437      -16.7352259000       -1.5478243330    8.3081943689E-05    8.8244369642E-05   -5.1624259532E-06
       927.0399568437      -16.6343119000       -1.5392443880    8.4243784454E-05    8.9494786669E-05   -5.2510022146E-06
       927.1408708437      -16.5333979000       -1.5306164181    8.5444003352E-05    9.0779492306E-05   -5.3354889541E-06
       927.2417848437      -16.4324839000       -1.5219396063    8.6684900030E-05    9.2100207646E-05   -5.4153076164E-06
       927.3426988437      -16.3315699000       -1.5132129016    8.7970078592E-05    9.3458883278E-05   -5.4888046863E-06
       927.4436128437      -16.2306559000       -1.5044356480    8.9293084790E-05    9.4856852891E-05   -5.5637681010E-06
       927.5445268437      -16.1297419000       -1.4956068842    9.0650281598E-05    9.6294899477E-05   -5.6446178794E-06
       927.6454408437      -16.0288279000       -1.4867256211    9.2037357026E-05    9.7773569549E-05   -5.7362125225E-06
       927.7463548437      -15.9279139000       -1.4777910562    9.3457349462E-05    9.9294204358E-05   -5.8368548965E-06
       927.8472688437      -15.8269999000       -1.4688021442    9.4916285239E-05    1.0085846937E-04   -5.9421841316E-06
       927.9481828437      -15.7260859000       -1.4597578813    9.6419907732E-05    1.0246849129E-04   -6.0485835568E-06
       928.0490968437      -15.6251719000       -1.4506571588    9.7972846488E-05    1.0412661685E-04   -6.1537703589E-06
       928.1500108437      -15.5242579000       -1.4414990550    9.9579157014E-05    1.0583546097E-04   -6.2563039597E-06
       928.2509248437      -15.4233439000       -1.4322823207    1.0124250767E-04    1.0759764448E-04   -6.3551368127E-06
       928.3518388437      -15.3224299000       -1.4230059660    1.0296647467E-04    1.0941592895E-04   -6.4494542847E-06
       928.4527528437      -15.2215159000       -1.4136687421    1.0475504533E-04    1.1129353186E-04   -6.5384865293E-06
       928.5536668437      -15.1206019000       -1.4042694349    1.0661230081E-04    1.1323366603E-04   -6.6213652146E-06
       928.6545808437      -15.0196879000       -1.3948067128    1.0854269002E-04    1.1523974542E-04   -6.6970554060E-06
       928.7554948437      -14.9187739000       -1.3852793532    1.1055109943E-04    1.1731563469E-04   -6.7645352556E-06
       928.8564088437      -14.8178599000       -1.3756861679    1.1264283255E-04    1.1946542172E-04   -6.8225891730E-06
       928.9573228437      -14.7169459000       -1.3660255363    1.1482351877E-04    1.2169352729E-04   -6.8700085207E-06
       929.0582368437      -14.6160319000       -1.3562960171    1.1709953122E-04    1.2400476355E-04   -6.9052323343E-06
       929.1591508437      -14.5151179000       -1.3464962753    1.1947783356E-04    1.2640435967E-04   -6.9265261055E-06
       929.2600648437      -14.4142039000       -1.3366246865    1.2196666957E-04    1.2889809743E-04   -6.9314278593E-06
       929.3609788437      -14.3132899000       -1.3266796069    1.2457571715E-04    1.3149231109E-04   -6.9165939483E-06
       929.4618928437      -14.2123759000       -1.3166594520    1.2731671035E-04    1.3419384987E-04   -6.8771395215E-06
       929.5628068437      -14.1114619000       -1.3065623724    1.3020446811E-04    1.3701050761E-04   -6.8060394976E-06
       929.6637208437      -14.0105479000       -1.2963866937    1.3325737188E-04    1.3995075214E-04   -6.6933802548E-06
       929.7646348437      -13.9096339000       -1.2861305919    1.3649898852E-04    1.4302413722E-04   -6.5251487008E-06
       929.8655488437      -13.8087199000       -1.2757919186    1.3995948467E-04    1.4624133448E-04   -6.2818498126E-06
       929.9664628437      -13.7078059000       -1.2653688604    1.4367801028E-04    1.4961437833E-04   -5.9363680559E-06
       930.0673768437      -13.6068919000       -1.2548592296    1.4770537587E-04    1.5315690302E-04   -5.4515271476E-06
       930.1682908437      -13.5059779000       -1.2442607897    1.5210837989E-04    1.5688396892E-04   -4.7755890285E-06
       930.2692048437      -13.4050639000       -1.2335713812    1.5697516967E-04    1.6081398501E-04   -3.8388153400E-06
       930.3701188437      -13.3041499000       -1.2227884877    1.6241544356E-04    1.6496649235E-04   -2.5510487952E-06
       930.4710328437      -13.2032359000       -1.2119095701    1.6855688841E-04    1.6936580483E-04   -8.0891641770E-07
       930.5719468437      -13.1023219000       -1.2009321517    1.7550532575E-04    1.7403908995E-04    1.4662357970E-06
       930.6728608437      -13.0014079000       -1.1898534614    1.8324707078E-04    1.7901886421E-04    4.2282065723E-06
       930.7737748437      -12.9004939000       -1.1786706889    1.9149105071E-04    1.8434409180E-04    7.1469589047E-06
       930.8746888437      -12.7995799000       -1.1673807974    1.9964039133E-04    1.9005998270E-04    9.5804086201E-06
       930.9756028437      -12.6986659000       -1.1559806483    2.0733845099E-04    1.9622389648E-04    1.1114554508E-05
       931.0765168437      -12.5977519000       -1.1444668074    2.1527707975E-04    2.0290364539E-04    1.2373434360E-05
       931.1774308437      -12.4968379000       -1.1328360899    2.2477457364E-04    2.1018325367E-04    1.4591319967E-05
       931.2783448437      -12.3959239000       -1.1210847631    2.3656578893E-04    2.1816811022E-04    1.8397678711E-05
       931.3792588437      -12.2950099000       -1.1092088020    2.5020086963E-04    2.2699109240E-04    2.3209777226E-05
       931.4801728437      -12.1940959000       -1.0972044505    2.6382218344E-04    2.3682199618E-04    2.7000187263E-05
       931.5810868437      -12.0931819000       -1.0850672020    2.7521381632E-04    2.4788101058E-04    2.7332805735E-05
       931.6820008437      -11.9922679000       -1.0727926452    2.8466476141E-04    2.6045481362E-04    2.4209947793E-05
       931.7829148437      -11.8913539000       -1.0603760620    2.9477959737E-04    2.7492454473E-04    1.9855052637E-05
       931.8838288437      -11.7904399000       -1.0478122510    3.0676455656E-04    2.9179357618E-04    1.4970980378E-05
       931.9847428437      -11.6895259000       -1.0350960566    3.1977912581E-04    3.1173591291E-04    8.0432128932E-06
       932.0856568437      -11.5886119000       -1.0222216881    3.3359028581E-04    3.3564024414E-04   -2.0499583260E-06
       932.1865708437      -11.4876979000       -1.0091830391    3.4843531949E-04    3.6463893727E-04   -1.6203617774E-05
       932.2874848437      -11.3867839000       -0.9959738180    3.6448032040E-04    4.0009978989E-04   -3.5619469492E-05
       932.3883988437      -11.2858699000       -0.9825868748    3.8314183615E-04    4.4339460155E-04   -6.0252765400E-05
       932.4893128437      -11.1849559000       -0.9690150635    4.0651657807E-04    4.9532141014E-04   -8.8804832065E-05
       932.5902268437      -11.0840419000       -0.9552505603    4.3498166140E-04    5.5507995577E-04   -1.2009829438E-04
       932.6911408437      -10.9831279000       -0.9412846575    4.6460019555E-04    6.1894428011E-04   -1.5434408456E-04
       932.7920548437      -10.8822139000       -0.9271084545    4.8814293449E-04    6.7926321248E-04   -1.9112027799E-04
       932.8929688437      -10.7812999000       -0.9127120940    4.9942266902E-04    7.2478791060E-04   -2.2536524158E-04
       932.9938828437      -10.6803859000       -0.8980850181    5.0005223124E-04    7.4521428178E-04   -2.4516205054E-04
       933.0947968437      -10.5794719000       -0.8832156738    5.0270311112E-04    7.3902718421E-04   -2.3632407310E-04
       933.1957108437      -10.4785579000       -0.8680916733    5.2104769115E-04    7.1526672341E-04   -1.9421903226E-04
       933.2966248437      -10.3776439000       -0.8526995289    5.5514904837E-04    6.8651004145E-04   -1.3136099307E-04
       933.3975388437      -10.2767299000       -0.8370243524    5.9476095828E-04    6.6186339222E-04   -6.7102433931E-05
       933.4984528437      -10.1758159000       -0.8210499659    6.3534902722E-04    6.4563257381E-04   -1.0283546586E-05
       933.5993668437      -10.0749019000       -0.8047585186    6.7883431409E-04    6.3895957131E-04    3.9874742773E-05
       933.7002808937       -9.9739878500       -0.7881304502    7.2727659559E-04    6.4165210699E-04    8.5624488602E-05
       933.8011948937       -9.8730738500       -0.7711438473    7.8392638310E-04    6.5320485059E-04    1.3072153251E-04
       933.9021088937       -9.7721598500       -0.7537745772    8.5176849733E-04    6.7323638033E-04    1.7853211700E-04
       934.0030228937       -9.6712458500       -0.7359955479    9.2510595840E-04    7.0172371698E-04    2.2338224141E-04
       934.1039368937       -9.5703318500       -0.7177762000    9.8654165292E-04    7.3899232954E-04    2.4754932338E-04
       934.2048508937       -9.4694178500       -0.6990822221    1.0208311084E-03    7.8581772434E-04    2.3501338406E-04
       934.3057648937       -9.3685038500       -0.6798744247    1.0314273804E-03    8.4339802311E-04    1.8802935732E-04
       934.4066788937       -9.2675898500       -0.6601079760    1.0421813407E-03    9.1340518440E-04    1.2877615632E-04
       934.5075928937       -9.1666758500       -0.6397310320    1.0747372592E-03    9.9804780025E-04    7.6689458997E-05
       934.6085068937       -9.0657618500       -0.6186833385    1.1362664890E-03    1.1001633999E-03    3.6103089085E-05
       934.7094208937       -8.9648478500       -0.5968939213    1.2273440668E-03    1.2232770668E-03    4.0669999864E-06
       934.8103348937       -8.8639338500       -0.5742783356    1.3485650200E-03    1.3717773455E-03   -2.3212325482E-05
       934.9112488937       -8.7630198500       -0.5507348365    1.5020356956E-03    1.5508081454E-03   -4.8772449887E-05
       935.0121628937       -8.6621058500       -0.5261389234    1.6915643206E-03    1.7664732637E-03   -7.4908943141E-05
       935.1130768937       -8.5611918500       -0.5003353077    1.9219827770E-03    2.0254031152E-03   -1.0342033821E-04
       935.2139908937       -8.4602778500       -0.4731265160    2.1994281250E-03    2.3352963956E-03   -1.3586827061E-04
       935.3149048937       -8.3593638500       -0.4442544242    2.5295613416E-03    2.7030581835E-03   -1.7349684190E-04
       935.4158188937       -8.2584498500       -0.4133706087    2.9177254075E-03    3.1351687534E-03   -2.1744334586E-04
       935.5167328937       -8.1575358500       -0.3799849034    3.3674226969E-03    3.6357465802E-03   -2.6832388326E-04
       935.6176468937       -8.0566218500       -0.3433683253    3.8787248690E-03    4.2048976701E-03   -3.2617280105E-04
       935.7185608937       -7.9557078500       -0.3023492795    4.4471436409E-03    4.8375566446E-03   -3.9041300371E-04
       935.8194748937       -7.8547938500       -0.2548104266    5.0629070582E-03    5.5219826840E-03   -4.5907562574E-04
       935.9203888937       -7.7538798500       -0.1960653722    5.7090231430E-03    6.2387162794E-03   -5.2969313637E-04
       936.0668508937       -7.6074178500        0.0000000000    6.6547430221E-03    7.2836755198E-03   -6.2893249773E-04
       936.1222168937       -7.5520518500        0.1205480048    6.9959994037E-03    7.6609278199E-03   -6.6492841619E-04
       936.2231308937       -7.4511378500        0.2025303511    7.5954477727E-03    8.3176990408E-03   -7.2225126803E-04
       936.3240448937       -7.3502238500        0.2598177562    8.1472579101E-03    8.9149553428E-03   -7.6769743269E-04
       936.4249588937       -7.2493098500        0.3065811471    8.6318165314E-03    9.4345301901E-03   -8.0271365871E-04
       936.5258728937       -7.1483958500        0.3471004366    9.0355861532E-03    9.8657695365E-03   -8.3018338329E-04
       936.6267868937       -7.0474818500        0.3833607435    9.3509834165E-03    1.0204459337E-02   -8.5347592061E-04
       936.7277008937       -6.9465678500        0.4164759053    9.5804506839E-03    1.0456847097E-02   -8.7639641276E-04
       936.8286148937       -6.8456538500        0.4471452632    9.7297804648E-03    1.0632343879E-02   -9.0256341417E-04
       936.9295288937       -6.7447398500        0.4758420113    9.8049921097E-03    1.0740241945E-02   -9.3524983541E-04
       937.0304428937       -6.6438258500        0.5029039335    9.8185362597E-03    1.0795556331E-02   -9.7702007081E-04
       937.1313568937       -6.5429118500        0.5285821220    9.7766962578E-03    1.0806361023E-02   -1.0296647651E-03
       937.2322708937       -6.4419978500        0.5530694408    9.6898792172E-03    1.0783930479E-02   -1.0940512622E-03
       937.3331848937       -6.3410838500        0.5765176085    9.5665637411E-03    1.0736774849E-02   -1.1702111076E-03
       937.4340988937       -6.2401698500        0.5990485954    9.4123219322E-03    1.0669623495E-02   -1.2573015626E-03
       937.5350128937       -6.1392558500        0.6207624287    9.2357126228E-03    1.0589632055E-02   -1.3539194321E-03
       937.6359268937       -6.0383418500        0.6417419364    9.0423740695E-03    1.0500631332E-02   -1.4582572623E-03
       937.7368408937       -5.9374278500        0.6620569911    8.8373229155E-03    1.0405342195E-02   -1.5680192795E-03
       937.8377548937       -5.8365138500        0.6817669539    8.6247685742E-03    1.0305589464E-02   -1.6808208897E-03
       937.9386688937       -5.7355998500        0.7009228533    8.4101417705E-03    1.0204474636E-02   -1.7943328660E-03
       938.0395828937       -5.6346858500        0.7195690512    8.1961910608E-03    1.0102525967E-02   -1.9063349065E-03
       938.1404968937       -5.5337718500        0.7377440520    7.9861844925E-03    1.0000813700E-02   -2.0146292078E-03
       938.2414108937       -5.4328578500        0.7554819695    7.7830527852E-03    9.9000470585E-03   -2.1169942733E-03
       938.3423248937       -5.3319438500        0.7728129007    7.5895683344E-03    9.8016476252E-03   -2.2120792908E-03
       938.4432388937       -5.2310298500        0.7897635719    7.4067383879E-03    9.7048053890E-03   -2.2980670011E-03
       938.5441528937       -5.1301158500        0.8063579971    7.2358015527E-03    9.6095260526E-03   -2.3737245000E-03
       938.6450668937       -5.0292018500        0.8226177683    7.0797775873E-03    9.5176677968E-03   -2.4378902095E-03
